2048;1972
2048;1975
2048;1969
2048;1970
2037;1967
2050;1973
2039;1974
2042;1973
2048;1973
2038;1970
2039;1972
2037;1974
2040;1973
2041;1975
2003;1971
2048;1972
2051;1971
2048;1971
2048;1977
2048;1970
2048;1973
2048;1971
2022;1974
2048;1974
2048;1967
2037;1972
2039;1974
2039;1973
2039;1965
2048;1974
2036;1971
2039;1975
2040;1972
2041;1972
2048;1963
2048;1967
2048;1973
2039;1967
2048;1971
2048;1971
2048;1972
2048;1971
2048;1976
2048;1975
2048;1970
2048;1976
2041;1978
2048;1973
2039;1973
2037;1972
2035;1971
2037;1967
2039;1973
2048;1971
2048;1970
2048;1971
2048;1971
2048;1969
2048;1971
2048;1970
2035;1971
2048;1971
2048;1973
2048;1973
2048;1972
2048;1978
2048;1976
2038;1973
2048;1974
2048;1973
2037;1975
2048;1973
2039;1971
2039;1972
2038;1972
2048;1971
2048;1971
2048;1971
2048;1971
2048;1972
2048;1975
2048;1972
2048;1965
2048;1973
2048;1973
2048;1963
2048;1973
2059;1974
2048;1971
2038;1974
2041;1974
2039;1975
2038;1973
2048;1971
2039;1966
2039;1971
2048;1971
2042;1972
2049;1978
2048;1971
2039;1974
2048;1976
2292;1973
2038;1954
2048;1974
2048;1972
2048;1973
2048;1972
2039;1973
2048;1970
2040;1973
2037;1979
2038;1971
2040;1971
2039;1971
2051;1970
2048;1971
2052;1970
2048;1970
2049;1973
2048;1972
2048;1970
2048;1973
2048;1973
2048;1972
2048;1974
2048;1973
2038;1971
2039;1972
2038;1973
2038;1973
2037;1969
2048;1971
2036;1971
2048;1971
2033;1971
2048;1970
2039;1970
2048;1969
2048;1970
2048;1971
2049;1972
2048;1972
2039;1972
2041;1973
2048;1972
2041;1973
2039;1975
2039;1973
2034;1972
2037;1972
2035;1971
2033;1972
2039;1971
2039;1971
2036;1969
2039;1969
2038;1969
2039;1970
2048;1970
2041;1968
2039;1970
2048;1970
2038;1971
2039;1969
2048;1970
2037;1971
2036;1971
2034;1970
2031;1971
2037;1971
2031;1969
2031;1971
2034;1970
2038;1967
2031;1969
2031;1967
2035;1967
2039;1967
2039;1967
2034;1966
2039;1967
2035;1966
2035;1967
2035;1968
2041;1967
2032;1967
2031;1967
2040;1968
2029;1968
2031;1968
2029;1967
2031;1965
2036;1963
2033;1966
2033;1962
2037;1965
2034;1965
2037;1964
2028;1964
2048;1966
2039;1963
2037;1965
2036;1963
2039;1966
2039;1965
2035;1966
2034;1966
2031;1966
2034;1967
2030;1965
2029;1965
2031;1964
2031;1964
2031;1963
2031;1963
2033;1963
2031;1961
2034;1961
2034;1961
2034;1963
2035;1962
2034;1962
2031;1967
2031;1963
2035;1952
2029;1962
2029;1980
2026;1962
2022;1963
2028;1958
2024;1961
2027;1960
2030;1963
2029;1959
2030;1958
2034;1958
2031;1958
2035;1959
2037;1989
2036;1959
2036;1960
2052;1963
2048;1960
2030;1963
2035;1960
2031;1959
2031;1989
2033;1961
2060;1960
2027;1959
2024;1961
2025;1959
2026;1959
2027;1960
2029;1958
2031;1957
2031;1958
2033;1957
2032;1957
2031;1960
2030;1957
2029;1957
2036;1959
2029;1957
2037;1958
2031;1960
2026;1960
2029;1961
2025;1960
2030;1958
2030;1955
2024;1959
2025;1956
2029;1953
2031;1957
2025;1955
2031;1955
2030;1954
2031;1952
2031;1955
2033;1955
2036;1956
2034;1956
2034;1956
2034;1953
2031;1957
2029;1957
2053;1957
2028;1957
2028;1956
2023;1957
2003;1954
2031;1953
2031;1955
2025;1955
2025;1972
2032;1972
2031;1983
2032;1953
2029;1951
2035;1953
2029;1955
2031;1956
2059;1956
2039;1957
2031;1957
2015;1963
2028;1957
2024;1957
2017;1955
2026;1961
2024;1953
2030;1955
2020;1954
2027;1961
2023;1954
2027;1957
2028;1949
2032;1951
2026;1954
2029;1949
2027;1952
2027;1954
2029;1953
2031;1952
2026;1953
2027;1955
2026;1953
2019;1947
2026;1958
2025;1956
2017;1956
2024;1940
2023;1953
2032;1951
2024;1957
2028;1953
2024;1951
2022;1951
2029;1951
2030;1952
2028;1949
2025;1951
2024;1978
2028;1952
2029;1953
2021;1953
2020;1953
2023;1925
2018;1952
2015;1949
2021;1951
2022;1949
2021;1949
2022;1948
2026;1949
2022;1948
2025;1947
2027;1948
1999;1948
2025;1948
2027;1948
2024;1978
2026;1949
2027;1949
2024;1950
2018;1950
2017;1950
2019;1951
2020;1941
2017;1951
2011;1949
2019;1948
2007;1953
2004;1955
2010;1951
2006;1946
2005;1943
2019;1941
1986;1939
2017;1937
2022;1938
2019;1938
2017;1939
2031;1941
2017;1941
2018;1946
2018;1947
2020;1951
2018;1949
2015;1947
2024;1949
2018;1950
2017;1949
2023;1947
2020;1944
2022;1945
2025;1944
2019;1943
2024;1941
2023;1943
2023;1942
2025;1943
2023;1944
2021;1956
2023;1941
2019;1947
2018;1945
2013;1949
2021;1949
2015;1946
2015;1949
2021;1945
2015;1945
2021;1942
2020;1944
2017;1943
2022;1944
2016;1946
2024;1944
2021;1942
2020;1945
2022;1946
2021;1949
2020;1947
2023;1953
2013;1948
2007;1951
2020;1947
2011;1945
2015;1940
2010;1943
2026;1943
2015;1939
2015;1939
1990;1938
2027;1941
2020;1944
2018;1942
2018;1945
2025;1945
2024;1946
2022;1943
2023;1945
2023;1946
2020;1949
2019;1943
2013;1946
2015;1946
2011;1946
2013;1945
2012;1943
2012;1944
2012;1943
2017;1941
2013;1939
2013;1939
2012;1939
2019;1937
2015;1936
2015;1937
2012;1933
2018;1937
2023;1938
2019;1938
2019;1938
2013;1936
2013;1939
2018;1938
2015;1939
2015;1939
2010;1939
2019;1937
2015;1939
2014;1936
2013;1947
2020;1938
2015;1935
2010;1932
2019;1936
2015;1935
2015;1934
2007;1933
2010;1935
2021;1932
2011;1933
2008;1932
2012;1933
2015;1932
2014;1929
2005;1933
2010;1927
2011;1930
2015;1930
2007;1931
2019;1930
2009;1928
2011;1926
2014;1933
2015;1920
2009;1930
2018;1925
2010;1921
2005;1929
1995;1929
1992;1929
1939;1953
1970;2027
1883;1960
1843;1919
1875;1863
1910;1832
1944;1813
1959;1802
1967;1806
1982;1815
2004;1831
2002;1845
2015;1870
2010;1886
2022;1901
2010;1912
2000;1915
1998;1919
1989;1921
1983;1912
1975;1900
1967;1890
1976;1880
1960;1865
1962;1850
1967;1835
1953;1830
1963;1811
1947;1795
1961;1779
1947;1762
1927;1738
1907;1703
1758;1631
1794;1502
1790;1372
1826;1258
1829;1174
1863;1108
1912;1083
1917;1081
1961;1103
1967;1141
1975;1185
1999;1232
1996;1274
1997;1309
1981;1351
1996;1351
1977;1362
1957;1354
1959;1344
1960;1333
1948;1317
1949;1303
1932;1289
1948;1278
1946;1271
1948;1267
1947;1268
1970;1269
1953;1274
1960;1279
1954;1275
1954;1287
1958;1306
1955;1293
1964;1293
1957;1294
1956;1295
1954;1294
1960;1293
1964;1296
1954;1290
1954;1289
1946;1291
1971;1288
1957;1289
1954;1288
1956;1290
1961;1291
1943;1289
1951;1293
1942;1298
1961;1293
1949;1324
1959;1292
1946;1287
1950;1293
1953;1297
1962;1292
1951;1286
1945;1292
1961;1291
1963;1292
1962;1293
1959;1302
1957;1291
1950;1294
1969;1299
1959;1293
1933;1296
1960;1295
1955;1298
1959;1295
1944;1299
1948;1295
1959;1295
1956;1296
1953;1300
1950;1298
1953;1295
1958;1296
1955;1295
1955;1299
1959;1533
1957;1299
1958;1300
1962;1301
1951;1299
1954;1301
1947;1301
1953;1305
1948;1301
1944;1300
1950;1301
1950;1299
1959;1300
1960;1300
1951;1301
1954;1278
1961;1300
1951;1300
1962;1300
1958;1301
1969;1308
1966;1303
1948;1304
1960;1303
1963;1304
1949;1305
1949;1306
1958;1304
1954;1305
1948;1306
1950;1305
1953;1303
1959;1304
1947;1303
1959;1304
1949;1304
1968;1304
1958;1305
1959;1305
1959;1304
1961;1306
1963;1307
1958;1309
1955;1311
1961;1310
1957;1310
1952;1311
1957;1311
1957;1310
1955;1309
1958;1310
1946;1309
1956;1309
1967;1309
1953;1309
1959;1309
1960;1308
1965;1310
1961;1316
1956;1308
1965;1311
1953;1313
1964;1311
1962;1316
1965;1314
1949;1315
1962;1315
1946;1316
1965;1315
1957;1312
1955;1314
1951;1314
1957;1313
1965;1314
1953;1314
1962;1314
1960;1314
1958;1312
1957;1313
1965;1315
1958;1317
1963;1316
1958;1315
1955;1315
1963;1315
1966;1316
1961;1315
1952;1316
1959;1317
1953;1318
1952;1317
1961;1315
1972;1313
1962;1315
1967;1311
1953;1315
1973;1313
1965;1317
1975;1319
1945;1318
1961;1313
1965;1311
1964;1320
1970;1323
1966;1321
1943;1321
1961;1321
1966;1321
1960;1321
1959;1319
1956;1320
1963;1319
1951;1320
1959;1317
1962;1320
1966;1322
1966;1322
1952;1324
1983;1323
1950;1322
1973;1323
1976;1325
1931;1324
1973;1323
1971;1324
1959;1326
1958;1327
1975;1323
1949;1327
1962;1325
1955;1325
1959;1322
1965;1324
1954;1321
1955;1325
1974;1320
1981;1323
1979;1327
1965;1327
1960;1326
1965;1327
1965;1327
1959;1328
1969;1329
1973;1325
1957;1330
1963;1327
1958;1323
1964;1326
1967;1331
1953;1327
1966;1327
1967;1324
1970;1331
1955;1324
1973;1322
1967;1321
1980;1329
1962;1329
1953;1329
1974;1330
1967;1331
1969;1351
1962;1332
1977;1334
1967;1333
1959;1335
1960;1329
1949;1331
1967;1332
1967;1332
1963;1330
1961;1330
1967;1330
1958;1330
1972;1331
1965;1330
1974;1334
1966;1332
1951;1332
1976;1333
1975;1334
1962;1335
1965;1335
1967;1335
1970;1335
1981;1338
1950;1349
1962;1338
1972;1340
1968;1341
1963;1338
1962;1337
1961;1340
1973;1337
1968;1337
1966;1337
1974;1338
1977;1340
1977;1341
1954;1341
1973;1341
1978;1344
1966;1344
1962;1341
1975;1343
1969;1344
1969;1344
1931;1343
1979;1343
1965;1344
1962;1343
1961;1342
1973;1344
1969;1344
1971;1344
1967;1343
1971;1341
1971;1349
1968;1344
1979;1350
1967;1350
1979;1347
1968;1348
1977;1347
1966;1343
1976;1349
1969;1338
1965;1348
1977;1351
1955;1346
1956;1349
1982;1348
1979;1346
1966;1348
1984;1348
1967;1352
1956;1345
1985;1347
1978;1349
1983;1351
1973;1350
1978;1352
1971;1354
1981;1353
1977;1355
1964;1354
1959;1351
1969;1360
1989;1359
1960;1355
1967;1354
1969;1355
1978;1354
1965;1357
1984;1354
1989;1354
1969;1355
1978;1356
1989;1357
1972;1389
1973;1359
1974;1361
1968;1359
1983;1363
1981;1362
1979;1363
1970;1363
1977;1362
1978;1361
1974;1358
1967;1362
1966;1363
1973;1362
1982;1361
1975;1363
1985;1367
1981;1365
1966;1365
1978;1369
1976;1368
1998;1367
1979;1369
1962;1370
1987;1374
1985;1373
1958;1371
1974;1377
1975;1372
1979;1365
1983;1376
1974;1372
1980;1373
1983;1373
1969;1375
1980;1373
1982;1375
1986;1375
1967;1375
1985;1375
1981;1373
1983;1372
1975;1379
1983;1379
1985;1380
1972;1381
1983;1383
1980;1385
1975;1381
1975;1384
1974;1383
1977;1384
1969;1387
1978;1399
1963;1387
1977;1383
1990;1386
1995;1381
1967;1384
1982;1385
1989;1386
1973;1390
1978;1381
1994;1388
1995;1389
1979;1390
1961;1392
1976;1391
1983;1390
1985;1390
1977;1389
1982;1392
1979;1389
1967;1388
1987;1387
1981;1388
1987;1391
1966;1391
1995;1392
2001;1391
1972;1393
1977;1390
1992;1395
1991;1394
1989;1395
1978;1396
1975;1389
1988;1396
1973;1397
1985;1398
1973;1396
1975;1397
1983;1396
1983;1397
1991;1395
1969;1395
1979;1394
1983;1393
1994;1398
1991;1401
1986;1391
1978;1377
1999;1394
1982;1398
1979;1399
1989;1400
1982;1398
1982;1401
1971;1401
1993;1394
2001;1406
1975;1399
1980;1396
1973;1394
1983;1399
2003;1399
1981;1399
1985;1405
1992;1387
1981;1399
1986;1402
1983;1403
1991;1402
1992;1404
1991;1403
1980;1414
1983;1405
1993;1398
1978;1405
1987;1407
1973;1407
1979;1406
1990;1405
1985;1404
1973;1404
1985;1403
2007;1406
1985;1405
1980;1405
1994;1403
1982;1407
2001;1407
1997;1412
1978;1411
1983;1410
1969;1415
2006;1408
1987;1411
1971;1410
1991;1410
1976;1410
1984;1410
1980;1409
1974;1411
1975;1409
1986;1406
2000;1410
2001;1425
1976;1410
1997;1411
1999;1410
1980;1419
1971;1413
2003;1409
2007;1414
1982;1412
1983;1415
1994;1415
1994;1416
1978;1415
1976;1414
1987;1418
1981;1411
1995;1413
1987;1414
1985;1416
1990;1415
1981;1413
1987;1414
2006;1415
2002;1416
1967;1416
1983;1417
1983;1417
1997;1418
1988;1420
1993;1419
1979;1414
1990;1423
2001;1419
1991;1416
1966;1419
1976;1422
1989;1416
1995;1412
1998;1419
1998;1418
2001;1417
1981;1419
2001;1418
1995;1418
1994;1422
1981;1421
1999;1421
2006;1423
1986;1423
1991;1423
1980;1425
1998;1424
1983;1439
1991;1423
1974;1421
1992;1420
1998;1422
1991;1419
1977;1421
1998;1419
1998;1422
1999;1423
1984;1423
1987;1422
1994;1453
2002;1425
1999;1427
1993;1425
1987;1425
1990;1427
1980;1427
1998;1427
1991;1427
1985;1426
2003;1427
1974;1427
1990;1427
2002;1426
1986;1425
1991;1424
2001;1426
2002;1427
1994;1428
1993;1428
1997;1429
2001;1429
1998;1431
2008;1430
1990;1430
1981;1430
2003;1431
1973;1430
2013;1430
1995;1429
1985;1430
1985;1431
2006;1430
1986;1431
1995;1429
1994;1429
2006;1429
1982;1429
1992;1430
2005;1429
1994;1431
1999;1433
2009;1434
2005;1435
1988;1433
1990;1435
1994;1436
1981;1434
1990;1434
1977;1439
1997;1429
2011;1435
1987;1433
1990;1434
1989;1433
2010;1431
2003;1435
1983;1435
1997;1435
1989;1434
1982;1435
1998;1434
2013;1435
1997;1439
1983;1440
1997;1437
2010;1438
1992;1440
1987;1440
1972;1438
2002;1438
2003;1437
1994;1438
1994;1436
1994;1435
1982;1435
2014;1436
1987;1437
2008;1439
1991;1444
1988;1440
2020;1439
2015;1443
1998;1440
2001;1441
1978;1442
2005;1444
1998;1446
1985;1441
1996;1409
1996;1441
2013;1442
1993;1441
1993;1439
1975;1440
2011;1437
2015;1439
2010;1438
1999;1439
2005;1443
1993;1442
2006;1444
2003;1443
2013;1444
2002;1444
1978;1431
2004;1442
1985;1443
2002;1442
1999;1445
1994;1443
1989;1442
1987;1441
2015;1442
2008;1441
1999;1442
2019;1448
1988;1445
1990;1442
2007;1442
2007;1443
2001;1449
2002;1447
2005;1445
2004;1446
2002;1427
1999;1447
1993;1447
2013;1460
1986;1446
1980;1443
2011;1446
2015;1447
1993;1449
1993;1445
2013;1446
2000;1446
2007;1449
1992;1446
2001;1442
2011;1447
2012;1447
2001;1439
1983;1449
2000;1449
2014;1448
1993;1453
2013;1450
1988;1449
1987;1449
2013;1448
1983;1449
2009;1449
1990;1448
2005;1451
1999;1447
2008;1447
2007;1448
1999;1451
2011;1448
1998;1453
2016;1448
1992;1450
1994;1450
2019;1449
2007;1456
2001;1453
1989;1455
2004;1454
2001;1452
1999;1455
1994;1453
2007;1452
2010;1453
2001;1452
1999;1455
1999;1454
1993;1465
1984;1463
2014;1458
2018;1453
1999;1452
1995;1453
2000;1448
2002;1450
1996;1450
1986;1451
2002;1453
2005;1465
2009;1455
1985;1453
2010;1455
1991;1457
2001;1454
1999;1455
2027;1455
2035;1441
2008;1461
1977;1455
2010;1451
2021;1452
2005;1456
2008;1459
1999;1457
2007;1457
2007;1459
1992;1455
1991;1458
2011;1459
2004;1460
1991;1457
1985;1484
2009;1455
2027;1455
2009;1455
2009;1457
1999;1455
1998;1459
1995;1453
1997;1458
2016;1455
2002;1458
2008;1453
2013;1461
2019;1460
1985;1457
2003;1460
1993;1460
2010;1455
1998;1455
1991;1452
2010;1458
2014;1458
2000;1460
2016;1457
1983;1453
2005;1457
2019;1457
2007;1459
2004;1459
2013;1460
2015;1461
2010;1461
1983;1461
2009;1453
2031;1459
2010;1461
1983;1462
1993;1458
2011;1463
2005;1461
1991;1453
2009;1455
2004;1461
1994;1455
2029;1460
2018;1462
2006;1460
2005;1455
1987;1460
2020;1457
2026;1459
2025;1467
2000;1461
1987;1462
2014;1463
2016;1463
1999;1463
2009;1464
2001;1462
1986;1460
2010;1458
2015;1463
2006;1461
1981;1463
2022;1463
2003;1461
2004;1459
2014;1461
2011;1461
2018;1460
2013;1461
2006;1465
2011;1463
1989;1462
2014;1462
2023;1466
2019;1463
2010;1465
2005;1464
2007;1465
2003;1463
1985;1466
2029;1459
2006;1458
2016;1461
1999;1461
2021;1464
2011;1465
1999;1465
1999;1463
2011;1465
2012;1469
2024;1465
2008;1463
2019;1465
2007;1472
1993;1461
2008;1466
2033;1465
1996;1459
2019;1463
2009;1463
2010;1462
2013;1461
2014;1463
1997;1465
2017;1466
1995;1465
1990;1463
2031;1465
2029;1463
2017;1472
2009;1467
2003;1468
2015;1466
2016;1470
2005;1469
1991;1469
2019;1469
2004;1464
2035;1466
2001;1469
2014;1467
2014;1470
2007;1465
2007;1467
2004;1467
1991;1466
2021;1468
2028;1464
2019;1469
2011;1470
2017;1469
2002;1466
2015;1466
2024;1474
2007;1471
1986;1473
2021;1470
2018;1467
2013;1470
2022;1469
1992;1477
2004;1467
2018;1473
1990;1469
2024;1471
2029;1463
2003;1462
2013;1467
2007;1470
2026;1471
2018;1471
2016;1471
2018;1468
1999;1472
2008;1472
2027;1479
2011;1471
2018;1476
1993;1469
2011;1469
2021;1471
1999;1470
2023;1475
2009;1469
1995;1468
2028;1472
2035;1473
2011;1477
1997;1475
2023;1475
2031;1475
2017;1477
1994;1477
2005;1474
2027;1474
1998;1474
2018;1471
2023;1475
2013;1476
1999;1473
2006;1476
2025;1470
2017;1451
2007;1469
2023;1473
2007;1471
2009;1473
2022;1473
2048;1477
2003;1477
2012;1477
1999;1473
2001;1477
2024;1477
2023;1475
1999;1477
2024;1478
2005;1476
2022;1478
2010;1478
2013;1474
2019;1479
1992;1477
2027;1477
2038;1481
2048;1481
1999;1479
2008;1480
2021;1481
2025;1484
2011;1481
2039;1479
2021;1482
2007;1482
2002;1484
2015;1483
2012;1481
2002;1481
2023;1483
2015;1483
2010;1483
2027;1482
2012;1482
2022;1469
2015;1482
2011;1479
2013;1483
2026;1477
2025;1485
2029;1487
2010;1487
2006;1486
2026;1486
2017;1485
2009;1489
2021;1487
2016;1485
2013;1488
2010;1487
2015;1490
2020;1486
2019;1487
2008;1485
2025;1487
2030;1485
2014;1479
2019;1485
2021;1486
2027;1485
2010;1488
2030;1487
2007;1490
2022;1491
2005;1487
2027;1488
1999;1487
2039;1487
2023;1492
2020;1487
1986;1486
2026;1487
2024;1484
2025;1485
2019;1488
2010;1486
2019;1486
2022;1489
2007;1487
2027;1490
2039;1491
2018;1491
2011;1490
2005;1491
2034;1492
2013;1492
2012;1491
2027;1491
2011;1491
2014;1491
2007;1490
2013;1488
2012;1489
2031;1487
2024;1489
2008;1488
2037;1488
2019;1491
2019;1491
2026;1492
2006;1492
2032;1492
2019;1491
2041;1493
2029;1493
2006;1492
2005;1494
2015;1492
2003;1491
2037;1492
2015;1492
2020;1493
2027;1491
2023;1489
2020;1490
2008;1490
2040;1492
2018;1493
2029;1493
2007;1495
2021;1494
2036;1491
2023;1495
2023;1493
2026;1495
2005;1493
2019;1493
1999;1489
2027;1506
2002;1492
2041;1493
2013;1492
2014;1493
2015;1492
2027;1491
2031;1491
2029;1487
2015;1491
2013;1490
2026;1491
2049;1495
2034;1495
2014;1497
2008;1493
2028;1493
2027;1494
2031;1496
2007;1494
2017;1493
2012;1493
2028;1492
2039;1493
2027;1498
2007;1493
2037;1492
2010;1492
2035;1494
2024;1492
2031;1497
2035;1495
2003;1495
2037;1493
2012;1496
2025;1498
2023;1493
2031;1497
2012;1497
2039;1495
2001;1496
2030;1495
1993;1496
2027;1495
2027;1509
2000;1499
1983;1495
2027;1494
2048;1491
2037;1497
2048;1499
2031;1499
2031;1499
2004;1505
2029;1524
2029;1498
2028;1497
2027;1501
2048;1501
2007;1495
2031;1501
2002;1510
2012;1494
2015;1495
2030;1495
2048;1496
2027;1499
1996;1495
2023;1497
2061;1500
2031;1500
2019;1501
2037;1502
2025;1482
2023;1504
2029;1499
2017;1495
2033;1503
2022;1505
2019;1497
2018;1502
2027;1500
2039;1497
2014;1499
2030;1500
2026;1497
2018;1499
2029;1501
2050;1498
2031;1501
2005;1505
2035;1500
2038;1507
2021;1504
2039;1499
2024;1505
2037;1503
2031;1508
2014;1503
2010;1498
2027;1509
2039;1506
2007;1502
2023;1501
2037;1501
2031;1499
2033;1502
2028;1501
2015;1510
2039;1502
2037;1501
2034;1502
2018;1502
2034;1506
2028;1505
2037;1502
2048;1506
2036;1506
2022;1508
1997;1507
2015;1503
2014;1504
2023;1506
2055;1505
2031;1508
2019;1501
2026;1502
2023;1508
2025;1500
2048;1508
2007;1522
2048;1505
2039;1513
2027;1505
2031;1507
2048;1508
2021;1516
2018;1512
2024;1505
2015;1508
2031;1507
2024;1507
2025;1512
2031;1509
2031;1505
2015;1510
2027;1489
2039;1511
2023;1508
2018;1500
2033;1504
2051;1510
2022;1516
2029;1509
2017;1509
2033;1509
2048;1504
2023;1512
2008;1510
2019;1508
2027;1513
2029;1511
2065;1509
2007;1513
2025;1511
2009;1508
2029;1507
2021;1507
2034;1507
2083;1505
2048;1511
2025;1511
2026;1513
2023;1511
2018;1510
2020;1510
2060;1512
2048;1514
2019;1517
2033;1516
2019;1514
2001;1510
2026;1512
2029;1513
2036;1511
2036;1513
2003;1509
2041;1511
2050;1510
2031;1510
2027;1510
2028;1512
2048;1514
2031;1514
2033;1514
2039;1515
2021;1513
2031;1513
2035;1512
2028;1516
2017;1513
2018;1512
2035;1511
2015;1510
2035;1509
2048;1513
2030;1513
2031;1513
2029;1514
2039;1517
2025;1513
2037;1514
2048;1516
2034;1516
2018;1494
2021;1518
2048;1517
2041;1516
2027;1518
2027;1519
2011;1511
2031;1517
2039;1516
2027;1517
2037;1517
2027;1513
2031;1514
2037;1511
1991;1517
2058;1515
2065;1517
2014;1518
2027;1518
2041;1513
2035;1518
2048;1519
2025;1520
2013;1519
2031;1515
2034;1526
2026;1519
2029;1519
2027;1517
2027;1518
2031;1517
2038;1516
2030;1517
2009;1516
2034;1517
2048;1517
2031;1519
2026;1519
2048;1517
2034;1521
2025;1523
2049;1525
2019;1522
2017;1522
2048;1522
2023;1521
2030;1520
2029;1523
2029;1519
2031;1520
2029;1524
2033;1522
2031;1521
2037;1516
2039;1521
2031;1520
2027;1518
2035;1519
2048;1525
2010;1524
2051;1524
2048;1527
2031;1525
2025;1524
2025;1524
2030;1525
2036;1526
2026;1531
2026;1524
2026;1521
2033;1521
2019;1520
2055;1520
2024;1523
2048;1524
2036;1524
2037;1525
2048;1523
2023;1525
2023;1526
2036;1526
2038;1527
2048;1527
2031;1527
2027;1530
2031;1529
2034;1526
2028;1531
2024;1525
2034;1526
2035;1521
2026;1525
2031;1526
2036;1525
2029;1526
2048;1526
2028;1526
2030;1527
2048;1526
2037;1530
2029;1527
2036;1530
2033;1531
2033;1530
2039;1530
2023;1525
2026;1535
2027;1528
2048;1530
2025;1529
2039;1529
2031;1530
2036;1530
2033;1525
2033;1530
2048;1526
2031;1531
2038;1531
2048;1532
2031;1531
2031;1519
2038;1536
2038;1531
2035;1533
2035;1533
2034;1539
2033;1534
2027;1533
2034;1531
2034;1531
2035;1531
2027;1530
2034;1528
2027;1531
2031;1532
2040;1538
2037;1533
2048;1532
2031;1533
2048;1533
2036;1537
2039;1534
2023;1535
2028;1536
2048;1537
2036;1538
2015;1539
2029;1530
2029;1535
2037;1535
2037;1535
2031;1538
2028;1534
2027;1534
2028;1537
2038;1533
2048;1536
2031;1534
2036;1539
2036;1536
2031;1544
2033;1539
2033;1536
2031;1542
2026;1538
2025;1535
2033;1538
2029;1537
2033;1538
2038;1536
2023;1536
2037;1535
2030;1535
2038;1535
2035;1536
2029;1535
2034;1537
2040;1537
2035;1538
2039;1538
2030;1542
2048;1540
2035;1540
2039;1544
2028;1543
2037;1542
2030;1533
2035;1539
2021;1538
2048;1531
2039;1537
2023;1537
2031;1536
2037;1535
2038;1536
2038;1536
2035;1537
2038;1537
2038;1538
2034;1538
2041;1540
2037;1540
2032;1541
2036;1543
2036;1543
2027;1540
2025;1539
2029;1539
2038;1537
2031;1536
2027;1535
2032;1536
2034;1791
2048;1537
2035;1537
2033;1537
2039;1535
2040;1538
2031;1537
2035;1540
2029;1541
2036;1541
2035;1542
2037;1542
2030;1542
2029;1542
2031;1542
2031;1543
2033;1541
2027;1541
2048;1543
2036;1540
2031;1541
2039;1540
2035;1541
2034;1541
2039;1543
2050;1545
2037;1545
2038;1547
2035;1548
2039;1546
2037;1547
2034;1549
2033;1551
2031;1549
2034;1549
2031;1550
2031;1549
2031;1547
2033;1547
2034;1547
2039;1548
2038;1547
2038;1546
2031;1546
2048;1549
2042;1547
2041;1550
2034;1552
2051;1554
2048;1553
2040;1554
2035;1554
2048;1554
2048;1555
2025;1553
2048;1555
2034;1551
2031;1556
2039;1547
2031;1554
2048;1554
2048;1555
2048;1554
2048;1555
2074;1555
2048;1556
2048;1556
2048;1558
2048;1553
2048;1558
2035;1559
2035;1557
2030;1559
2041;1562
2040;1563
2024;1559
2071;1564
2037;1557
2034;1560
2048;1557
2048;1553
2035;1558
2039;1559
2048;1557
2039;1558
2048;1559
2037;1562
2048;1560
2048;1562
2048;1563
2037;1565
2036;1577
2048;1563
2003;1561
2036;1563
2048;1563
2048;1564
2037;1570
2030;1562
2036;1563
2049;1563
2048;1567
2035;1564
2048;1565
2035;1564
2048;1567
2050;1567
2033;1567
2033;1568
2053;1568
2048;1569
2039;1571
2037;1569
2038;1575
2039;1574
2048;1575
2048;1572
2030;1575
2048;1577
2039;1569
2048;1575
2048;1577
2049;1599
2039;1577
2048;1589
2052;1577
2048;1579
2039;1577
2063;1579
2048;1577
2039;1579
2038;1578
2048;1579
2038;1579
2035;1584
2070;1580
2051;1579
2048;1579
2040;1575
2048;1582
2052;1583
2048;1583
2037;1582
2048;1583
2048;1583
2049;1580
2048;1587
2055;1587
2048;1590
2048;1586
2036;1585
2038;1585
2036;1584
2048;1588
2048;1585
2040;1582
2039;1582
2035;1575
2052;1583
2048;1578
2048;1582
2068;1585
2039;1581
2048;1589
2050;1583
2048;1581
2048;1579
2048;1583
2052;1583
2051;1583
2057;1585
2048;1585
2048;1586
2048;1585
2049;1583
2048;1590
2035;1583
2048;1582
2048;1583
2048;1578
2051;1585
2052;1589
2048;1581
2055;1573
2051;1577
2068;1580
2059;1584
2052;1587
2054;1589
2061;1593
2048;1595
2048;1596
2050;1597
2061;1595
2050;1595
2048;1592
2039;1592
2048;1593
2048;1592
2048;1606
2048;1589
2060;1590
2048;1587
2048;1588
2055;1594
2055;1591
2051;1592
2053;1594
2059;1597
2052;1596
2051;1600
2039;1601
2048;1601
2053;1603
2051;1601
2054;1599
2048;1600
2039;1596
2048;1600
2031;1592
2048;1591
2048;1595
2051;1595
2048;1598
2048;1595
2064;1596
2055;1596
2054;1598
2048;1611
2055;1598
2051;1597
2050;1600
2048;1600
2054;1601
2049;1602
2048;1601
2048;1596
2056;1597
2054;1595
2049;1595
2050;1595
2050;1613
2056;1596
2053;1596
2053;1596
2060;1597
2051;1595
2059;1597
2056;1601
2057;1599
2051;1601
2052;1601
2048;1602
2054;1601
2053;1589
2049;1606
2050;1602
2061;1598
2054;1612
2052;1597
2063;1600
2058;1597
2057;1597
2062;1598
2058;1586
2056;1594
2061;1596
2061;1601
2061;1595
2069;1599
2061;1598
2056;1600
2059;1602
2058;1601
2048;1602
2048;1602
2048;1601
2054;1600
2057;1597
2058;1591
2057;1599
2055;1597
2065;1596
2060;1589
2061;1595
2060;1599
2060;1598
2062;1599
2063;1602
2056;1602
2059;1601
2050;1601
2050;1601
2054;1600
2054;1602
2053;1599
2051;1600
2048;1595
2052;1592
2055;1593
2055;1590
2060;1597
2058;1619
2061;1600
2053;1594
2061;1597
2053;1603
2063;1594
2060;1595
2056;1597
2035;1597
2051;1599
2048;1598
2059;1597
2059;1607
2050;1613
2055;1598
2055;1598
2053;1590
2054;1596
2048;1596
2058;1596
2053;1595
2055;1599
2057;1596
2071;1601
2061;1595
2060;1595
2062;1596
2063;1597
2062;1597
2061;1598
2059;1597
2058;1599
2054;1599
2050;1599
2061;1602
2057;1599
2063;1598
2062;1597
2061;1595
2062;1596
2060;1596
2067;1594
2069;1596
2062;1600
2065;1593
2058;1595
2064;1596
2070;1598
2063;1598
2057;1599
2069;1601
2065;1598
2061;1600
2059;1600
2060;1599
2060;1597
2071;1598
2062;1602
2062;1597
2067;1594
2063;1594
2064;1593
2086;1595
2063;1595
2073;1595
2071;1622
2063;1591
2058;1597
2069;1598
2063;1599
2063;1599
2064;1598
2065;1598
2062;1577
2060;1602
2061;1610
2060;1593
2066;1595
2063;1598
2066;1595
2069;1595
2061;1595
2065;1595
2287;1566
2362;1495
2191;1557
2269;1625
2243;1690
2218;1745
2176;1785
2152;1801
2134;1809
2109;1803
2099;1792
2080;1767
2080;1743
2067;1714
2069;1689
2071;1672
2083;1646
2085;1637
2095;1633
2106;1635
2109;1639
2122;1639
2107;1663
2119;1676
2134;1687
2133;1697
2123;1704
2133;1709
2513;1724
2361;1901
2421;2082
2397;2259
2361;2409
2329;2523
2289;2594
2260;2622
2209;2620
2178;2594
2143;2546
2119;2497
2108;2437
2091;2381
2097;2334
2103;2295
2116;2273
2130;2263
2134;2266
2150;2272
2158;2285
2164;2304
2167;2301
2170;2337
2174;2351
2171;2361
2163;2367
2159;2371
2126;2367
2158;2369
2153;2365
2152;2358
2149;2353
2151;2348
2148;2343
2155;2338
2150;2335
2154;2333
2153;2333
2154;2333
2160;2335
2165;2343
2170;2353
2166;2363
2169;2372
2167;2380
2167;2382
2162;2388
2165;2389
2161;2388
2163;2386
2158;2383
2151;2382
2161;2377
2158;2374
2152;2371
2152;2368
2171;2366
2155;2365
2154;2365
2154;2357
2156;2365
2161;2357
2156;2361
2156;2366
2153;2366
2158;2365
2157;2365
2186;2371
2177;2385
2185;2401
2186;2417
2182;2447
2171;2438
2176;2446
2170;2450
2164;2451
2167;2449
2159;2446
2156;2441
2153;2436
2150;2432
2150;2425
2149;2421
2151;2417
2154;2414
2154;2412
2154;2412
2159;2411
2159;2410
2155;2410
2163;2411
2164;2418
2161;2416
2161;2416
2157;2415
2154;2417
2163;2415
2159;2414
2154;2413
2155;2413
2146;2410
2151;2413
2149;2412
2154;2403
2154;2403
2155;2422
2156;2381
2154;2402
2158;2402
2150;2401
2162;2399
2159;2401
2158;2397
2155;2398
2157;2399
2159;2398
2159;2398
2152;2398
2155;2399
2153;2395
2150;2395
2153;2393
2150;2398
2157;2393
2152;2391
2159;2386
2154;2390
2157;2389
2149;2389
2156;2389
2154;2390
2157;2387
2159;2388
2156;2384
2157;2385
2163;2387
2163;2386
2153;2385
2155;2382
2155;2382
2149;2387
2154;2389
2161;2394
2157;2394
2158;2399
2155;2401
2138;2402
2156;2402
2157;2436
2156;2399
2213;2399
2238;2455
2255;2509
2255;2567
2249;2617
2239;2661
2226;2693
2206;2715
2181;2730
2203;2741
2185;2747
2171;2741
2165;2740
2167;2734
2174;2729
2172;2728
2179;2735
2182;2744
2181;2754
2181;2762
2175;2765
2176;2769
2173;2767
2166;2770
2163;2768
2164;2767
2171;2760
2162;2756
2156;2749
2155;2746
2153;2738
2152;2730
2154;2731
2146;2699
2155;2720
2156;2715
2150;2713
2158;2714
2155;2701
2157;2728
2159;2699
2161;2698
2163;2696
2159;2695
2159;2692
2153;2692
2164;2686
2153;2684
2153;2678
2152;2677
2148;2672
2125;2666
2148;2662
2149;2661
2147;2655
2150;2652
2146;2651
2153;2649
2153;2647
2153;2630
2166;2641
2149;2641
2153;2635
2148;2629
2149;2625
2146;2619
2144;2611
2143;2605
2138;2599
2131;2589
2131;2571
2133;2564
2129;2554
2133;2547
2133;2538
2132;2551
2137;2530
2141;2522
2133;2509
2138;2509
2141;2507
2111;2506
2145;2500
2144;2499
2143;2496
2145;2495
2146;2491
2143;2469
2145;2489
2138;2485
2139;2486
2142;2483
2138;2479
2139;2477
2136;2477
2139;2483
2137;2475
2142;2469
2139;2469
2148;2466
2142;2466
2143;2461
2145;2463
2139;2463
2138;2461
2141;2461
2142;2457
2142;2456
2137;2455
2108;2454
2133;2452
2135;2451
2133;2449
2133;2451
2132;2445
2134;2441
2137;2442
2138;2435
2133;2438
2138;2435
2137;2434
2137;2434
2142;2432
2135;2431
2135;2433
2138;2425
2139;2426
2133;2425
2107;2425
2133;2421
2135;2418
2127;2422
2130;2418
2129;2412
2132;2412
2150;2411
2135;2405
2130;2403
2127;2403
2133;2401
2138;2407
2135;2400
2139;2418
2132;2398
2135;2396
2138;2399
2135;2398
2133;2397
2130;2395
2129;2393
2129;2389
2121;2394
2124;2390
2126;2385
2124;2383
2122;2383
2134;2385
2127;2379
2133;2375
2133;2379
2125;2377
2130;2379
2135;2375
2132;2373
2126;2370
2128;2369
2132;2367
2124;2366
2123;2367
2129;2366
2124;2362
2131;2362
2124;2363
2124;2360
2125;2357
2123;2366
2126;2355
2129;2356
2126;2355
2129;2355
2130;2353
2125;2357
2133;2351
2258;2387
2250;2453
2261;2522
2253;2593
2242;2655
2223;2708
2202;2747
2184;2771
2167;2775
2142;2768
2123;2751
2115;2726
2109;2699
2102;2675
2101;2649
2106;2627
2110;2614
2123;2612
2125;2597
2137;2600
2143;2606
2144;2617
2148;2623
2148;2631
2143;2634
2141;2641
2133;2641
2134;2638
2127;2630
2127;2627
2123;2627
2131;2614
2118;2607
2130;2608
2130;2606
2139;2605
2132;2604
2133;2599
2137;2601
2139;2598
2133;2600
2137;2599
2135;2597
2133;2599
2135;2599
2127;2597
2132;2597
2129;2597
2135;2589
2128;2592
2131;2591
2127;2591
2130;2592
2142;2587
2130;2585
2130;2583
2131;2579
2131;2580
2129;2580
2134;2577
2131;2575
2132;2573
2131;2573
2108;2572
2132;2576
2134;2570
2125;2568
2123;2564
2123;2566
2135;2575
2157;2577
2140;2578
2137;2574
2135;2575
2132;2581
2133;2579
2134;2573
2129;2574
2130;2561
2133;2569
2130;2566
2133;2563
2130;2562
2131;2565
2125;2560
2124;2557
2119;2560
2123;2558
2125;2555
2122;2555
2137;2551
2120;2556
2125;2547
2122;2545
2123;2544
2146;2540
2126;2537
2125;2530
2127;2537
2127;2531
2127;2525
2125;2531
2125;2536
2126;2525
2126;2529
2124;2521
2130;2526
2122;2525
2122;2523
2119;2525
2118;2519
2120;2522
2123;2516
2118;2515
2123;2511
2123;2512
2125;2511
2123;2511
2129;2510
2128;2511
2127;2513
2127;2513
2127;2516
2131;2518
2121;2517
2113;2515
2115;2513
2110;2509
2111;2504
2109;2501
2112;2498
2111;2465
2116;2489
2119;2489
2121;2487
2120;2487
2124;2487
2120;2487
2121;2487
2126;2487
2125;2487
2122;2487
2121;2486
2120;2486
2119;2483
2115;2482
2112;2479
2114;2479
2112;2476
2113;2475
2109;2474
2115;2473
2113;2473
2116;2469
2117;2469
2116;2470
2117;2469
2115;2467
2119;2466
2120;2466
2118;2466
2117;2465
2114;2467
2114;2465
2115;2463
2115;2461
2104;2461
2114;2461
2106;2459
2107;2459
2110;2457
2110;2455
2111;2456
2114;2460
2133;2454
2114;2453
2116;2453
2112;2451
2115;2449
2118;2450
2114;2450
2113;2447
2112;2445
2112;2447
2115;2445
2109;2446
2112;2447
2114;2447
2107;2449
2108;2450
2110;2451
2108;2451
2109;2451
2108;2449
2103;2443
2104;2436
2106;2435
2106;2425
2109;2429
2112;2427
2103;2422
2108;2421
2108;2425
2111;2430
2113;2426
2108;2427
2107;2427
2108;2429
2114;2425
2105;2431
2103;2427
2106;2426
2106;2427
2104;2424
2103;2421
2103;2417
2099;2410
2105;2415
2103;2404
2103;2411
2109;2417
2106;2413
2107;2412
2107;2411
2110;2412
2103;2413
2101;2409
2105;2411
2104;2411
2103;2411
2103;2412
2100;2413
2101;2413
2103;2409
2102;2419
2123;2407
2103;2405
2107;2405
2103;2402
2101;2398
2105;2397
2103;2398
2102;2399
2100;2399
2106;2399
2101;2398
2099;2398
2099;2397
2097;2391
2098;2397
2095;2394
2102;2391
2100;2392
2097;2391
2103;2387
2100;2389
2099;2386
2095;2389
2104;2388
2103;2386
2105;2384
2104;2387
2099;2387
2100;2392
2103;2388
2097;2386
2100;2385
2099;2384
2097;2383
2093;2383
2093;2381
2101;2379
2097;2380
2096;2377
2097;2374
2098;2377
2098;2382
2101;2375
2103;2377
2101;2377
2102;2376
2101;2378
2098;2377
2098;2379
2101;2381
2097;2376
2098;2377
2095;2370
2092;2374
2093;2375
2091;2371
2094;2372
2092;2372
2095;2370
2093;2369
2097;2371
2099;2363
2100;2374
2102;2376
2097;2373
2100;2373
2100;2372
2097;2371
2095;2371
2098;2371
2095;2375
2093;2372
2102;2372
2094;2372
2090;2367
2091;2373
2091;2374
2093;2372
2091;2373
2091;2375
2097;2376
2095;2373
2093;2367
2097;2373
2096;2364
2086;2368
2095;2363
2094;2369
2093;2369
2094;2367
2094;2368
2084;2394
