2048;2362
2048;2362
2048;2363
2051;2362
2048;2363
2048;2344
2048;2364
2048;2365
2035;2354
2039;2359
2039;2365
2038;2367
2039;2364
2039;2364
2037;2369
2048;2363
2048;2362
2037;2363
2048;2361
2048;2363
2048;2362
2048;2370
2054;2362
2026;2363
2048;2361
2048;2359
2048;2364
2039;2363
2038;2363
2039;2367
2038;2363
2037;2356
2048;2365
2040;2363
2048;2363
2041;2365
2048;2362
2048;2362
2048;2362
2048;2363
2048;2363
2048;2362
2048;2362
2048;2362
2048;2379
2013;2357
2048;2360
2039;2355
2037;2359
2048;2359
2039;2360
2031;2360
2039;2360
2037;2359
2039;2358
2039;2363
2041;2359
2041;2358
2048;2359
2039;2358
2048;2358
2048;2358
2048;2358
2048;2358
2048;2359
2048;2364
2049;2359
2048;2359
2048;2360
2048;2363
2038;2361
2038;2359
2037;2362
2048;2359
2054;2370
2053;2372
2049;2382
2048;2385
2041;2380
2038;2377
2039;2369
2038;2365
2037;2361
2037;2341
2037;2355
2039;2351
2041;2353
2048;2351
2036;2351
2039;2354
2038;2353
2061;2355
2038;2355
2039;2355
2037;2381
2048;2356
2042;2356
2048;2351
2048;2360
2048;2355
2048;2355
2048;2355
2048;2374
2048;2350
2048;2355
2048;2354
2050;2355
2035;2355
2037;2354
2041;2355
2048;2354
2048;2354
2038;2357
2030;2346
2039;2353
2048;2354
2048;2354
2039;2353
2048;2346
2048;2353
2048;2353
2048;2350
2048;2353
2048;2353
2048;2351
2048;2353
2048;2351
2040;2353
2039;2355
2037;2354
2038;2355
2048;2355
2038;2355
2038;2353
2041;2353
2041;2353
2038;2353
2048;2353
2048;2351
2048;2351
2048;2351
2048;2344
2048;2353
2048;2350
2041;2367
2048;2351
2048;2353
2048;2353
2048;2351
2048;2348
2039;2358
2038;2354
2037;2355
2031;2349
2048;2353
2048;2353
2048;2352
2048;2351
2048;2351
2048;2351
2048;2350
2048;2379
2048;2351
2048;2351
2039;2351
2048;2353
2048;2349
2040;2354
2040;2354
2040;2350
2037;2353
2039;2352
2037;2354
2039;2351
2048;2353
2039;2352
2039;2350
2039;2357
2048;2351
2048;2351
2048;2351
2048;2354
2048;2351
2048;2354
2041;2356
2039;2347
2048;2351
2035;2354
2037;2356
2038;2346
2037;2353
2048;2348
2048;2350
2038;2348
2038;2349
2039;2348
2040;2348
2039;2346
2048;2347
2039;2348
2048;2346
2048;2347
2048;2349
2048;2352
2048;2351
2039;2350
2049;2347
2048;2351
2041;2349
2039;2350
2037;2349
2035;2350
2037;2347
2038;2349
2039;2355
2039;2347
2048;2349
2040;2345
2048;2348
2040;2348
2048;2348
2048;2347
2048;2349
2048;2347
2048;2347
2039;2347
2048;2349
2038;2347
2037;2349
2039;2349
2036;2349
2036;2348
2035;2348
2036;2348
2038;2348
2048;2347
2037;2347
2039;2347
2041;2347
2048;2348
2048;2347
2048;2347
2048;2348
2048;2348
2038;2349
2048;2349
2048;2347
2048;2349
2031;2348
2037;2347
2036;2347
2037;2347
2035;2346
2034;2347
2037;2347
2037;2347
2035;2345
2039;2344
2040;2347
2039;2347
2039;2349
2048;2347
2042;2347
2048;2348
2048;2348
2048;2350
2048;2349
2034;2349
2033;2349
2048;2344
2040;2347
2031;2348
2048;2347
2035;2347
2039;2346
2041;2347
2034;2346
2034;2345
2039;2345
2048;2346
2048;2346
2048;2345
2048;2345
2041;2346
2036;2346
2040;2347
2048;2346
2039;2346
2034;2346
2039;2346
2035;2346
2031;2345
2031;2345
2036;2345
2036;2345
2038;2344
2039;2346
2038;2345
2048;2345
2041;2346
2052;2343
2048;2343
2038;2347
2048;2347
2048;2347
2041;2349
2048;2344
2036;2350
2035;2345
2036;2345
2031;2346
2038;2368
2038;2349
2034;2345
2038;2345
2039;2346
2039;2346
2048;2347
2038;2341
2035;2347
2020;2345
2048;2346
2034;2346
2039;2350
2048;2348
2041;2347
2048;2349
2040;2348
2037;2348
2037;2346
2036;2349
2037;2347
2040;2358
2038;2347
2037;2349
2031;2347
2039;2340
2037;2347
2040;2343
2048;2346
2037;2349
2048;2347
2048;2347
2036;2341
2038;2367
2048;2347
2048;2345
2031;2349
2036;2350
2051;2350
2038;2347
2036;2347
2039;2348
2031;2349
2036;2350
2041;2348
2030;2346
2039;2342
2037;2346
2048;2349
2048;2341
2039;2346
2042;2347
2048;2347
2039;2351
2039;2341
2048;2343
2035;2347
2039;2347
2037;2344
2030;2351
2031;2343
2037;2348
2038;2346
2034;2346
2048;2346
2030;2345
2048;2348
2048;2346
2032;2349
2040;2351
2039;2346
2048;2349
2048;2346
2048;2347
2048;2347
2048;2346
2048;2346
2040;2346
2035;2342
2038;2343
2037;2345
2034;2345
2038;2346
2029;2346
2048;2346
2040;2345
2039;2346
2048;2346
2048;2347
2048;2346
2049;2346
2048;2369
2048;2345
2049;2345
2038;2346
2048;2350
2040;2347
2031;2342
2028;2347
2037;2347
2036;2345
2035;2345
2048;2349
2036;2345
2037;2341
2048;2346
2048;2343
2037;2347
2048;2346
2048;2346
2048;2345
2048;2352
2038;2346
2038;2350
2039;2346
2048;2348
2038;2345
2038;2346
2034;2364
2031;2345
2036;2347
2034;2349
2033;2343
2038;2342
2029;2343
2038;2337
2048;2343
2033;2342
2036;2343
2049;2344
2049;2346
2030;2344
2048;2343
2061;2345
2039;2343
2037;2346
2048;2343
2048;2346
2035;2344
2032;2343
2039;2344
2037;2344
2034;2349
2041;2343
2033;2342
2048;2358
2048;2336
2037;2346
2039;2341
2048;2344
2048;2341
2048;2343
2048;2343
2039;2343
2048;2343
2040;2342
2038;2342
2037;2342
2039;2343
2036;2344
2038;2345
2037;2343
2036;2342
2039;2341
2039;2345
2039;2341
2048;2342
2048;2342
2041;2340
2048;2342
2048;2342
2039;2342
2048;2345
2048;2343
2048;2342
2048;2341
2037;2344
2048;2343
2039;2346
2048;2346
2035;2344
2038;2343
2036;2333
2037;2342
2035;2341
2038;2341
2039;2341
2038;2341
2042;2343
2048;2344
2048;2341
2048;2343
2039;2341
2037;2342
2048;2343
2049;2342
2048;2346
2038;2345
2037;2346
2038;2345
2039;2342
2033;2344
2040;2346
2039;2343
2048;2343
2053;2343
2041;2340
2037;2341
2040;2343
2048;2340
2048;2341
2038;2344
2048;2343
2048;2343
2048;2341
2048;2345
2039;2343
2048;2343
2039;2342
2037;2343
2039;2342
2030;2341
2048;2370
2048;2341
2035;2341
2037;2342
2034;2342
2048;2341
2048;2341
2038;2349
2035;2342
2048;2341
2057;2341
2038;2341
2037;2342
2048;2342
2048;2343
2048;2350
2035;2345
2029;2343
2040;2341
2034;2341
2048;2339
2042;2339
2033;2339
2031;2339
2048;2339
2048;2340
2040;2341
2040;2338
2048;2337
2048;2341
2048;2344
2048;2344
2048;2341
2048;2346
2036;2347
2040;2350
2048;2349
2040;2350
2029;2344
2029;2348
2033;2348
2040;2350
2038;2347
2031;2347
2040;2344
2048;2363
2041;2341
2039;2346
2048;2343
2038;2343
2039;2343
2048;2346
2054;2345
2048;2345
2048;2347
2033;2345
2048;2345
2036;2347
2037;2341
2031;2342
2028;2343
2048;2343
2038;2342
2059;2342
2048;2342
2049;2343
2048;2342
2033;2343
2048;2342
2048;2340
2037;2343
2036;2344
2048;2338
2056;2344
2024;2343
2048;2342
2036;2346
2048;2342
2048;2341
2031;2341
2036;2347
2048;2341
2040;2341
2039;2340
2039;2336
2037;2341
2058;2341
2048;2348
2035;2341
2054;2341
2049;2339
2036;2340
2041;2341
2033;2340
2058;2340
2031;2338
2039;2342
2031;2341
2048;2341
2034;2340
2048;2336
2048;2341
2038;2339
2035;2339
2031;2339
2052;2339
2048;2341
2048;2341
2048;2338
2029;2338
2048;2338
2048;2337
2035;2338
2053;2337
2039;2339
2048;2340
2031;2342
2065;2343
2031;2347
2020;2349
2048;2348
2052;2344
2034;2336
2035;2341
2037;2340
2040;2337
2026;2335
2038;2334
2063;2334
2048;2335
2048;2332
2048;2333
2054;2341
2024;2338
2032;2339
2055;2336
2048;2341
2039;2340
2048;2339
2036;2339
2028;2341
2048;2335
2039;2338
2054;2340
2035;2332
2029;2334
2048;2334
2036;2335
2057;2335
2051;2335
2019;2335
2035;2334
2053;2333
2051;2339
2036;2338
2048;2338
2050;2335
2032;2335
2029;2337
2035;2337
2036;2336
2048;2336
2035;2335
2048;2335
2049;2335
2040;2333
2033;2337
2048;2335
2048;2335
2041;2332
2056;2335
2041;2336
2055;2337
2048;2336
2053;2333
2035;2336
2048;2335
2048;2335
2048;2335
2031;2333
2033;2337
2024;2339
2048;2342
2062;2343
2035;2342
2031;2345
2053;2345
2039;2351
2037;2344
2051;2343
2038;2343
2048;2339
2031;2335
2048;2334
2048;2331
2023;2330
2031;2331
2048;2329
2048;2327
2048;2333
2048;2335
2048;2338
2038;2339
2036;2340
2040;2339
2048;2338
2049;2336
2027;2336
2048;2336
2051;2334
2055;2333
2025;2330
2035;2329
2048;2327
2053;2329
2031;2329
2028;2330
2048;2330
2048;2329
2048;2330
2026;2331
2048;2330
2035;2327
2031;2329
2048;2329
2053;2327
2031;2329
2048;2327
2048;2330
2048;2329
2050;2330
2033;2329
2042;2329
2048;2329
2058;2329
2031;2327
2025;2332
2012;2329
2062;2330
2052;2333
2028;2328
2060;2331
2025;2327
2022;2326
2048;2330
2048;2324
2049;2325
2053;2325
2025;2324
2006;2327
2069;2330
2077;2329
2024;2327
2035;2329
2066;2328
2031;2328
2017;2328
2059;2325
2031;2324
2034;2323
2048;2323
2012;2324
2037;2330
2082;2334
2040;2342
2056;2339
2058;2359
2033;2340
2039;2361
2031;2363
2050;2338
2025;2337
2039;2335
2036;2333
2063;2330
1999;2331
2052;2329
2011;2325
2061;2325
2048;2324
1982;2321
2027;2327
2055;2326
2052;2331
2034;2326
2018;2331
2069;2311
2050;2329
2040;2325
2036;2324
1999;2328
2063;2331
2048;2307
2031;2326
2050;2325
2048;2322
2021;2324
2049;2327
2070;2326
2007;2330
2020;2326
2079;2328
2040;2333
2048;2325
2022;2357
2020;2323
2048;2324
2052;2326
2024;2339
2067;2326
2068;2327
2021;2328
1964;2325
2063;2321
2080;2323
1964;2325
2061;2325
2060;2322
2007;2329
2063;2333
2040;2332
2026;2332
2054;2327
1996;2325
2012;2324
2057;2322
2048;2319
1972;2315
2048;2322
2115;2320
1985;2322
2074;2319
2030;2323
2031;2342
2053;2311
2077;2321
2011;2317
1983;2323
2034;2323
2050;2322
2052;2325
2048;2323
2048;2325
1982;2323
2053;2324
2095;2319
2053;2320
1963;2317
2015;2317
2081;2314
2048;2312
1985;2314
2020;2315
2073;2313
2051;2327
2037;2310
2039;2306
2017;2308
1987;2304
2086;2331
2055;2304
2012;2295
2023;2297
2069;2294
2015;2294
2023;2298
2048;2297
2035;2299
2036;2297
2056;2296
2039;2293
2026;2294
2015;2292
2034;2294
2067;2289
2033;2293
2033;2291
2059;2290
2007;2293
2021;2293
2037;2294
2012;2293
2048;2292
2039;2290
2073;2298
1966;2291
2051;2295
2026;2286
2067;2290
2013;2289
2052;2290
2056;2291
2023;2291
2057;2291
2051;2311
2017;2289
2005;2289
2073;2286
1981;2286
2015;2290
2051;2290
2085;2285
2061;2287
2022;2287
2027;2286
2049;2289
2017;2285
2048;2286
2050;2284
2034;2283
2017;2283
2050;2284
2078;2287
2017;2287
2022;2264
2022;2283
2031;2288
2061;2286
2033;2286
2048;2283
2041;2285
2021;2282
2020;2282
2058;2282
1992;2283
2023;2281
2068;2277
2039;2277
2036;2283
2004;2279
2053;2283
2064;2281
2027;2282
2005;2279
2067;2280
2050;2278
2012;2283
2071;2273
2003;2278
2048;2277
2014;2272
2077;2271
1988;2269
2002;2267
2028;2265
2062;2263
2021;2263
2048;2265
1995;2262
2048;2257
2054;2253
1974;2254
2048;2254
2069;2253
2006;2248
2050;2235
2033;2238
2004;2237
2027;2234
1996;2234
2018;2236
2030;2235
2048;2235
2020;2231
2057;2241
2049;2239
2012;2238
2059;2238
2025;2241
2031;2241
2048;2239
2077;2237
2053;2236
1937;2242
2051;2239
2104;2239
2026;2238
2048;2237
2005;2235
2049;2234
2014;2230
1945;2232
2077;2235
2033;2233
2053;2233
2014;2231
2048;2231
2048;2232
2017;2233
2016;2238
2057;2234
2049;2254
2029;2239
2036;2240
2076;2238
2042;2229
2007;2235
1999;2243
2009;2248
2067;2236
2048;2233
2002;2233
2003;2231
2033;2233
2053;2232
2029;2229
2034;2228
1982;2233
2060;2234
2078;2233
2021;2229
2024;2231
2016;2237
2048;2236
2057;2247
2003;2234
2048;2246
1994;2234
2048;2232
2087;2211
1976;2227
2015;2230
2083;2226
1963;2225
1983;2233
2084;2233
2106;2233
2011;2229
2033;2236
1990;2231
2085;2230
2023;2230
2049;2237
2015;2229
2017;2266
2031;2229
2071;2234
2066;2236
2056;2231
2005;2229
2048;2226
1988;2228
1986;2235
2131;2230
2056;2228
1960;2226
2021;2226
2063;2226
2023;2228
1999;2228
2048;2231
2050;2233
2075;2232
2030;2235
2013;2233
2071;2231
2023;2233
2011;2232
2056;2236
2023;2233
1988;2235
2048;2238
1999;2238
2070;2240
2079;2238
2002;2236
2006;2239
2050;2243
2053;2235
2055;2235
1988;2235
2027;2252
2074;2233
1967;2237
1992;2239
2067;2232
2055;2237
2038;2239
2011;2236
2048;2238
2071;2235
1998;2232
1990;2234
2052;2237
2027;2234
2031;2236
2015;2237
2076;2238
2076;2236
1969;2237
2058;2240
2048;2239
1977;2236
2105;2232
2048;2230
1986;2231
2018;2235
2048;2233
2048;2235
1993;2235
2048;2238
2048;2236
2036;2234
2023;2233
2024;2233
1999;2231
2039;2234
2034;2236
2049;2231
2024;2235
2031;2234
2041;2234
2055;2235
2048;2238
2011;2236
2035;2233
1993;2230
2048;2236
2093;2235
2003;2237
2024;2235
1991;2233
2066;2233
2001;2233
1989;2235
2095;2234
2015;2231
1998;2234
2011;2230
2062;2216
2095;2231
1999;2234
2010;2236
1982;2237
2062;2228
2071;2235
2074;2232
1986;2233
1998;2236
2050;2237
2074;2236
2048;2231
1988;2230
2027;2235
2064;2237
2051;2234
2016;2231
1999;2231
2036;2230
2036;2235
2048;2233
2055;2233
2050;2233
2049;2237
2048;2233
1981;2235
2027;2235
2098;2235
2011;2234
2039;2235
1960;2236
2058;2235
2078;2234
2029;2231
2019;2233
2033;2235
2033;2235
2063;2233
2049;2233
1999;2230
2038;2229
2017;2231
2029;2235
2088;2235
1993;2236
2061;2237
2018;2233
2071;2233
2059;2229
1913;2231
2081;2237
2063;2237
2010;2239
2026;2237
2018;2234
2063;2235
2055;2236
1994;2234
2036;2233
2051;2234
2034;2233
2025;2233
2048;2232
2021;2230
2010;2231
2075;2231
2048;2230
2048;2230
2014;2233
2001;2231
2037;2230
2063;2228
2021;2228
2048;2228
2034;2233
2015;2233
2013;2231
2054;2231
2056;2234
2052;2232
2011;2235
2011;2235
2048;2239
2055;2239
2050;2237
2050;2237
2011;2237
2038;2237
2040;2234
2016;2231
2072;2228
1952;2229
1995;2232
2100;2231
2028;2233
1999;2233
2033;2235
2040;2234
2048;2235
2039;2235
2057;2238
1961;2236
2099;2235
2052;2234
1992;2237
2059;2234
2012;2232
2048;2234
2053;2230
2026;2233
2024;2232
1986;2230
2060;2232
2048;2230
2033;2231
2011;2234
2062;2234
2051;2235
2065;2235
2004;2221
2049;2231
1990;2223
2032;2233
2039;2235
2022;2234
2057;2227
2063;2232
2021;2231
2038;2229
2021;2234
2061;2213
2002;2230
2039;2231
2048;2238
2048;2237
2014;2234
2035;2231
2034;2232
2051;2231
2031;2229
2054;2233
2011;2231
2048;2231
2048;2231
2019;2235
2040;2238
2037;2242
2063;2238
2027;2239
1999;2235
2048;2231
2050;2231
2016;2229
2031;2230
2015;2231
2062;2227
2021;2228
2010;2229
2084;2243
2011;2234
2062;2237
2035;2237
2013;2237
2056;2238
2048;2240
2022;2239
2056;2239
2062;2237
1996;2234
1981;2238
2127;2235
1967;2236
1970;2235
2106;2235
2068;2234
2021;2237
2007;2235
2037;2234
2048;2231
2037;2227
1979;2227
2057;2233
2053;2233
2024;2232
2054;2232
2033;2232
2023;2229
2022;2232
2023;2231
2050;2231
2012;2233
2035;2233
2056;2228
2059;2229
2011;2234
2031;2240
1982;2231
2021;2236
2079;2234
2036;2237
2021;2233
2051;2235
2019;2232
2025;2229
2037;2234
2033;2233
2033;2231
2065;2235
2068;2235
1952;2245
2065;2250
2026;2251
2064;2254
2007;2249
2048;2257
2050;2258
2012;2257
2055;2261
2019;2261
2073;2241
2015;2257
2027;2258
2022;2260
2049;2261
2075;2261
1984;2258
2041;2267
2055;2258
2030;2263
2035;2263
2041;2261
1999;2259
2059;2259
2048;2262
2048;2259
2031;2255
2029;2254
2022;2261
2048;2255
2038;2258
2063;2257
2005;2257
2051;2258
2074;2258
1970;2255
2058;2258
2055;2262
2048;2262
2023;2263
2048;2263
2063;2261
2001;2261
2025;2297
2069;2262
2040;2260
2026;2259
2036;2257
2009;2257
2075;2260
2049;2259
2033;2262
2035;2258
2024;2255
2062;2257
2031;2259
2066;2259
1981;2252
2013;2253
2091;2249
2013;2252
2017;2253
2010;2251
2085;2250
2017;2251
2035;2250
2002;2247
2048;2249
2036;2229
2015;2246
2052;2245
2031;2245
2064;2249
1996;2252
2074;2250
2048;2245
2057;2248
1949;2253
2078;2253
2095;2256
2039;2257
2015;2258
2012;2257
2038;2255
2040;2249
2033;2251
2035;2256
2027;2254
2037;2245
2074;2245
2038;2246
2022;2248
2034;2247
2009;2244
2070;2237
2023;2247
2059;2241
2053;2245
2035;2245
2048;2246
1988;2245
2049;2243
2081;2236
1997;2240
2010;2239
2060;2239
2048;2237
2024;2239
2035;2224
2027;2240
2054;2241
2028;2239
2048;2235
2074;2241
2021;2240
2016;2243
2069;2244
2036;2237
1994;2240
2017;2241
2061;2240
2037;2242
2048;2241
2023;2241
2048;2238
2048;2239
2015;2243
2050;2238
2061;2240
2019;2236
2048;2232
2030;2236
2023;2242
2029;2239
2021;2241
2071;2237
2081;2243
2048;2244
1991;2240
2060;2239
2023;2242
2020;2241
2027;2242
2031;2245
2071;2240
1979;2242
2031;2240
2059;2238
2039;2239
1998;2239
2088;2239
2039;2231
2036;2241
2026;2244
2048;2238
2067;2244
2016;2244
2029;2247
2035;2245
2052;2246
2034;2246
2053;2245
2013;2242
2048;2240
2057;2239
2007;2245
1963;2237
2090;2238
2074;2237
1991;2237
2027;2239
2055;2241
2022;2241
2057;2245
2067;2245
2049;2242
2033;2241
2048;2245
1989;2238
2068;2241
2023;2236
1998;2239
2067;2238
2048;2236
2083;2239
2012;2240
2013;2245
2031;2239
2062;2239
2049;2239
2058;2240
2033;2243
2049;2240
2011;2241
2035;2243
2057;2245
2042;2241
2027;2237
2056;2245
2024;2244
2048;2245
2038;2248
2040;2244
2056;2239
1987;2241
2014;2241
2067;2239
2027;2238
2023;2239
2067;2243
2048;2239
2015;2242
2050;2239
2050;2238
2017;2236
2075;2237
2036;2237
2010;2240
2031;2241
2071;2244
2018;2245
2295;2245
2049;2250
2048;2243
2052;2243
2026;2240
2030;2243
2025;2237
2036;2241
2057;2241
2059;2237
2014;2240
2052;2237
2054;2237
2018;2244
2048;2241
2063;2244
2037;2242
2053;2239
2038;2238
1965;2241
2058;2226
2048;2242
2048;2240
2048;2239
2025;2234
2048;2237
2029;2238
2062;2241
2054;2239
2011;2235
2021;2237
2051;2239
2070;2238
2016;2236
2026;2238
2050;2238
2048;2237
2020;2249
2020;2239
2026;2244
2076;2239
2024;2238
1978;2238
2295;2239
2058;2239
2037;2237
2048;2237
2048;2239
2095;2231
1983;2231
1985;2231
2037;2231
2089;2220
2067;2237
2037;2236
2023;2237
2035;2237
2063;2239
2024;2240
2018;2237
2027;2237
2048;2237
2013;2239
2005;2237
2038;2238
2021;2234
2086;2232
2048;2237
2031;2235
2048;2221
2029;2235
2057;2237
2036;2237
2053;2236
2021;2235
2031;2237
2054;2236
2025;2235
2051;2238
2021;2237
2057;2237
2038;2238
2059;2239
2048;2239
2027;2237
2001;2236
2065;2233
2078;2231
1969;2235
2073;2237
2056;2238
2062;2236
2012;2236
2024;2237
2039;2238
2075;2237
2048;2235
2031;2236
1986;2234
2055;2237
2060;2235
2048;2233
2004;2232
2048;2230
2040;2234
2053;2229
2029;2235
2038;2237
2049;2238
2040;2239
2050;2241
2030;2241
2048;2239
2039;2240
2060;2238
2039;2239
2026;2242
2074;2234
2031;2239
2056;2236
1977;2234
2059;2235
2029;2239
2028;2239
2063;2239
2024;2238
2036;2238
2036;2237
2048;2236
2027;2237
2048;2236
2048;2235
2035;2233
2029;2234
2048;2233
2074;2234
2017;2234
2068;2235
2023;2234
2008;2236
2003;2237
2066;2237
2023;2237
2065;2237
2048;2237
2015;2237
2068;2231
2015;2231
1981;2235
2081;2236
2052;2236
2017;2234
2024;2234
2033;2236
2077;2235
2058;2237
2027;2238
2052;2238
2020;2235
2036;2234
2029;2235
2031;2234
2062;2234
2034;2234
2034;2234
2012;2239
2048;2235
2051;2235
2033;2234
2050;2229
2029;2232
2048;2234
2049;2232
2031;2235
2049;2234
2029;2242
2051;2239
2058;2236
2055;2246
2005;2241
2039;2239
2028;2241
2034;2240
2039;2237
2048;2241
2048;2241
2034;2238
2053;2238
2039;2240
2035;2237
2064;2242
2034;2237
1999;2237
2086;2237
2084;2237
2049;2234
2005;2231
2028;2235
2048;2229
2007;2240
2062;2233
2049;2237
2034;2237
2035;2241
2048;2243
2048;2243
2051;2247
2035;2245
2058;2250
2048;2250
2033;2247
2034;2246
2048;2249
2051;2242
2039;2240
2025;2241
2039;2241
2054;2239
2026;2238
2041;2234
1985;2235
2057;2244
2053;2242
2048;2242
2041;2240
2014;2239
2053;2239
2040;2235
2051;2239
2060;2240
2041;2238
2005;2235
2063;2239
2054;2238
2032;2239
2026;2239
2029;2240
2068;2243
2048;2238
2035;2238
2037;2237
2027;2237
2027;2242
2041;2233
2048;2237
2037;2232
2027;2233
2048;2234
2061;2233
2011;2233
2048;2235
2059;2236
2048;2233
2048;2233
2041;2234
2033;2237
2048;2239
2073;2237
2024;2240
2015;2240
2077;2242
2035;2242
2002;2243
2057;2242
2055;2254
2039;2243
2057;2243
2016;2242
2039;2243
2073;2244
2084;2236
1933;2239
2034;2236
2079;2240
2050;2239
2030;2239
2033;2238
2049;2241
2048;2240
2062;2239
2035;2241
2031;2239
2053;2236
2038;2237
2039;2239
2058;2239
2029;2241
2036;2241
2031;2239
2059;2241
2041;2238
2048;2223
2018;2241
2021;2241
2057;2239
2068;2240
2057;2241
2038;2237
2048;2241
2023;2236
2059;2238
2036;2237
2022;2236
2054;2243
2039;2238
2007;2239
2063;2236
2048;2237
2048;2236
2048;2243
2037;2243
2041;2235
2048;2241
2035;2239
2081;2242
2055;2243
2000;2242
2017;2242
2048;2244
2068;2239
2019;2243
2035;2239
2023;2241
2036;2239
2048;2239
2034;2239
2021;2241
2048;2240
2048;2241
2048;2237
2030;2235
2031;2239
2051;2253
2055;2237
2070;2241
1995;2239
2031;2241
2069;2241
2048;2245
1995;2248
2053;2248
2053;2248
2054;2245
2021;2243
2021;2246
2053;2243
2048;2247
2035;2244
2031;2241
2082;2241
2029;2221
1984;2243
2048;2245
2089;2243
2026;2244
2009;2244
2075;2240
2063;2239
1982;2238
1983;2241
2072;2243
2067;2247
2048;2249
2033;2249
2056;2247
2057;2223
1999;2245
2048;2247
2017;2247
2051;2249
2084;2250
2040;2244
2031;2250
2053;2248
2023;2249
2051;2247
2073;2250
2019;2247
2020;2247
2048;2247
2051;2246
2055;2245
1999;2247
2033;2244
2053;2243
2052;2242
2037;2242
2048;2240
2048;2241
2037;2244
2048;2242
2048;2241
2077;2241
2019;2243
2051;2247
2072;2246
2051;2247
1995;2235
2059;2246
2054;2243
2048;2244
2048;2240
2048;2243
2031;2239
2038;2236
2048;2238
2050;2237
2026;2235
2048;2234
2054;2232
1997;2235
2079;2235
2073;2239
2024;2243
2025;2244
2037;2239
2079;2240
2049;2245
2037;2243
2015;2243
2055;2244
2052;2243
2039;2245
2056;2242
2028;2238
2019;2242
2054;2241
2089;2243
2007;2241
2036;2241
2061;2239
2062;2237
2073;2237
1991;2234
2007;2238
2053;2243
2081;2242
2040;2249
2049;2235
2054;2246
2027;2247
2009;2247
2053;2247
2062;2245
2033;2245
2029;2250
2033;2250
2058;2245
2093;2241
2017;2248
2025;2247
2055;2247
2071;2247
2050;2246
2010;2243
2016;2247
2074;2249
2073;2247
2031;2246
2023;2247
2015;2248
2071;2225
2057;2242
2031;2242
2034;2247
2048;2246
2048;2246
2039;2240
2039;2245
2059;2245
2048;2245
2048;2244
2048;2243
2033;2244
2020;2248
2053;2240
2073;2245
1999;2244
2048;2241
2053;2221
2036;2244
2049;2247
2026;2247
2038;2244
2048;2247
2048;2248
2036;2246
2048;2246
2007;2245
2063;2245
2038;2242
2025;2245
2074;2247
2068;2242
2031;2243
2016;2242
2057;2243
2085;2241
1994;2241
2048;2243
2061;2239
2064;2245
2020;2243
2048;2244
2029;2245
2049;2243
2031;2243
2048;2239
2018;2247
2078;2250
2061;2244
2037;2241
2053;2251
2055;2251
2055;2257
2048;2256
2048;2257
2051;2255
2030;2255
2030;2253
2048;2255
2035;2253
2051;2253
2050;2251
2023;2250
2031;2249
2055;2248
2064;2238
2009;2250
2050;2249
2053;2249
2039;2250
2024;2243
2050;2251
2073;2250
2028;2249
2033;2251
2063;2251
2056;2252
2007;2252
2029;2253
2048;2253
2027;2255
2075;2255
2085;2259
2023;2253
2007;2253
2036;2256
2061;2253
2052;2255
2035;2253
2028;2251
2054;2245
2048;2253
2052;2251
2048;2250
2053;2247
2025;2251
2027;2251
2060;2251
2025;2251
2049;2251
2041;2251
2026;2253
2034;2250
2052;2250
2048;2252
2031;2250
2037;2250
2066;2250
2025;2249
2034;2249
2052;2248
2055;2250
2057;2249
2063;2249
2061;2246
2013;2250
2029;2247
2048;2245
2031;2245
2027;2246
2037;2249
2050;2248
2048;2247
2032;2247
2051;2248
2058;2247
2023;2245
2015;2245
2073;2245
2050;2247
2048;2249
2026;2249
2048;2251
2056;2255
2061;2254
2056;2254
2023;2257
2001;2257
2067;2255
2058;2254
2048;2253
2020;2251
2007;2248
2073;2248
2035;2245
2025;2244
2066;2243
2020;2244
2048;2245
2060;2245
2041;2247
2054;2246
2033;2248
2020;2247
2065;2248
2052;2249
2048;2249
2034;2249
2026;2251
2077;2233
1996;2249
2033;2250
2039;2247
2048;2247
2035;2246
2049;2242
2025;2242
2048;2245
2062;2247
2049;2245
2031;2245
2062;2244
2040;2242
2034;2248
2057;2239
2054;2242
2048;2244
2017;2246
2051;2245
2026;2241
2103;2241
1977;2243
2039;2245
2037;2245
2071;2239
2015;2242
2055;2242
2061;2242
2027;2242
2054;2241
2051;2242
2041;2243
2037;2245
2048;2244
2057;2243
2031;2246
2048;2244
2053;2247
2056;2248
2030;2247
2025;2249
2059;2259
2039;2248
2041;2243
2038;2249
2048;2246
2038;2243
2033;2238
2055;2243
2050;2246
2048;2246
2049;2249
2037;2247
2048;2254
2051;2250
2048;2252
2048;2247
2037;2250
2048;2255
2039;2242
2031;2252
2037;2246
2048;2244
2037;2249
2030;2249
2048;2250
2063;2247
2055;2249
2027;2251
2050;2247
2048;2251
2048;2249
2048;2251
2048;2250
2030;2252
2054;2252
2039;2253
2040;2251
2038;2254
2037;2253
2048;2251
2036;2254
2048;2251
2048;2252
2035;2250
2033;2250
2053;2249
2041;2249
2048;2240
2054;2249
2050;2247
2048;2248
2039;2248
2048;2248
2041;2247
2036;2246
2048;2249
2048;2246
2039;2246
2048;2243
2040;2247
2021;2247
2064;2249
2041;2247
2040;2249
2048;2249
2039;2254
2048;2251
2048;2250
2048;2251
2048;2250
2048;2246
2048;2253
2041;2251
2050;2251
2048;2251
2036;2250
2034;2248
2050;2248
2063;2248
2035;2247
2035;2249
2048;2248
2035;2245
2048;2245
2034;2239
2034;2245
2052;2242
2048;2270
2053;2247
2048;2245
2052;2247
2051;2251
2025;2251
2055;2252
2069;2255
2038;2250
2039;2255
2048;2269
2035;2253
2035;2251
2035;2251
2041;2246
2048;2243
2030;2247
2048;2248
2041;2245
2048;2246
2048;2244
2021;2245
2048;2248
2055;2248
2048;2255
2048;2251
2048;2253
2048;2253
2048;2253
2040;2251
2048;2253
2039;2252
2037;2268
2039;2251
2041;2251
2033;2251
2048;2253
2048;2251
2048;2253
2048;2255
2048;2251
2048;2257
2048;2255
2048;2256
2048;2257
2048;2259
2048;2256
2048;2263
2048;2258
2037;2255
2052;2259
2048;2255
2031;2258
2037;2258
2036;2258
2039;2257
2040;2256
2048;2254
2037;2255
2048;2255
2048;2254
2039;2254
2048;2253
2048;2270
2048;2259
2048;2237
2048;2258
2048;2257
2048;2258
2038;2257
2036;2256
2038;2258
2037;2254
2037;2259
2037;2261
2041;2256
2030;2254
2038;2253
2048;2248
2048;2256
2051;2254
2034;2256
2048;2263
2041;2261
2051;2263
2048;2263
2050;2266
2048;2267
2048;2269
2039;2267
2048;2269
2027;2270
2034;2267
2035;2266
2030;2268
2039;2267
2048;2265
2041;2266
2048;2269
2048;2268
2048;2269
2048;2269
2038;2257
2048;2271
2048;2270
2048;2271
2035;2271
2049;2269
2048;2267
2048;2273
2036;2275
2039;2273
2048;2273
2040;2271
2038;2271
2039;2270
2037;2270
2027;2273
2035;2270
2048;2271
2037;2270
2048;2268
2048;2272
2048;2273
2048;2271
2048;2281
2050;2273
2048;2283
2048;2277
2039;2277
2048;2271
2037;2275
2039;2274
2036;2278
2036;2272
2038;2271
2048;2276
2039;2267
2039;2269
2048;2267
2048;2271
2048;2271
2041;2272
2048;2274
2050;2275
2039;2277
2049;2281
2051;2282
2048;2282
2048;2286
2048;2287
2048;2287
2048;2293
2048;2291
2048;2295
2048;2299
2048;2295
2048;2297
2048;2297
2048;2294
2048;2295
2048;2297
2048;2295
2048;2294
2038;2296
2048;2299
2048;2296
2052;2276
2048;2307
2048;2299
2041;2302
2034;2304
2038;2305
2039;2305
2048;2305
2040;2304
2048;2307
2035;2309
2038;2306
2039;2306
2037;2304
2052;2305
2038;2305
2039;2299
2042;2302
2039;2301
2038;2301
2049;2302
2039;2302
2036;2302
2036;2301
2035;2304
2037;2301
2039;2300
2036;2299
2037;2299
2037;2297
2036;2300
2041;2297
2039;2298
2041;2298
2041;2299
2041;2299
2049;2300
2048;2303
2040;2302
2048;2304
2050;2306
2039;2307
2038;2308
2037;2308
2036;2310
2035;2308
2033;2308
2031;2307
2029;2307
2031;2306
2041;2307
2037;2304
2039;2307
2037;2304
2048;2305
2038;2305
2048;2306
2035;2306
2037;2305
2048;2305
2048;2306
2038;2306
2038;2308
2039;2307
2037;2308
2035;2308
2031;2309
2039;2307
2048;2309
2029;2309
2038;2310
2048;2310
2039;2309
2048;2311
2038;2311
2039;2311
2048;2310
2039;2315
2039;2309
2048;2313
2039;2313
2037;2314
2035;2313
2035;2313
2038;2314
2037;2313
2035;2313
2037;2314
2035;2314
2034;2314
2035;2315
2039;2317
2039;2317
2039;2316
2038;2316
2038;2315
2048;2318
2048;2319
2036;2321
2048;2322
2048;2322
2048;2321
2034;2323
2039;2323
2033;2323
2031;2321
2031;2319
2034;2319
2037;2318
2028;2319
2034;2319
2039;2319
2040;2319
2038;2319
2035;2323
2039;2323
2041;2324
2048;2326
2037;2327
2035;2329
2040;2330
2037;2328
2034;2326
2034;2330
2033;2333
2020;2328
2038;2337
2034;2327
2034;2328
2034;2330
2030;2329
2036;2326
2037;2328
2037;2330
2037;2327
2037;2319
2039;2330
2038;2331
2039;2331
2038;2331
2037;2343
2065;2338
2035;2337
2029;2334
2031;2335
2034;2332
2030;2333
2029;2337
2040;2336
2031;2337
2034;2335
2033;2337
2035;2337
2040;2337
2036;2335
2006;2337
2041;2336
2036;2337
2031;2369
2037;2336
2034;2338
2031;2335
2031;2339
2033;2339
2034;2341
2033;2340
2033;2341
2030;2338
2033;2334
2035;2343
2036;2342
2048;2346
2048;2347
2036;2346
2035;2326
2036;2349
2048;2349
2038;2351
2038;2352
2031;2351
2048;2351
2037;2354
2031;2351
2012;2347
2029;2348
2026;2347
2024;2359
2025;2340
2033;2340
2023;2332
2026;2342
2031;2339
2031;2337
2038;2341
2035;2341
2033;2342
2036;2344
2037;2345
2033;2345
2034;2348
2030;2349
2040;2348
2029;2347
2031;2347
2030;2348
2029;2348
2035;2350
2031;2353
2035;2355
2033;2357
2032;2355
2059;2358
2026;2356
2030;2358
2031;2357
2026;2356
2029;2356
2030;2356
2037;2357
2031;2358
2035;2358
2031;2359
2033;2361
2035;2363
2033;2367
2030;2366
2028;2369
2017;2373
2025;2372
2031;2373
2033;2373
2034;2376
2031;2375
2037;2375
2048;2377
2013;2378
2031;2373
2029;2378
2031;2378
2031;2379
2033;2382
2031;2386
2031;2384
2033;2370
2036;2387
2030;2391
2030;2393
2027;2393
2031;2393
2035;2398
2033;2398
2030;2399
2007;2399
2033;2402
2035;2401
2035;2405
2033;2403
2037;2403
2031;2403
2031;2404
2035;2405
2035;2405
2030;2406
2031;2410
2031;2405
2022;2406
2029;2411
2029;2405
2030;2406
2031;2414
2031;2411
2031;2406
2031;2409
2033;2410
2033;2414
2037;2415
2048;2418
2035;2416
2038;2419
2033;2419
2035;2419
2038;2419
2035;2417
2033;2421
2020;2419
2029;2418
2031;2417
2031;2416
2036;2417
2048;2417
2040;2417
2038;2418
2027;2417
2048;2417
2041;2421
2048;2425
2040;2421
2040;2424
2035;2426
2030;2423
2031;2421
2035;2419
2032;2426
2029;2417
2027;2418
2038;2415
2029;2419
2029;2419
2029;2421
2031;2410
2029;2419
2033;2415
2021;2419
2031;2423
2031;2421
2017;2423
2030;2422
2033;2421
2028;2423
2031;2422
2029;2424
2037;2425
2029;2426
2027;2426
2026;2427
2022;2427
2031;2426
2027;2430
2028;2429
2031;2431
2029;2434
2028;2431
2027;2429
2031;2430
2030;2431
2028;2429
2029;2432
2034;2433
2027;2425
2025;2435
2031;2435
2037;2437
2027;2434
2027;2435
2025;2437
2019;2435
2026;2433
2021;2432
2029;2428
2027;2430
2027;2435
2028;2430
2027;2427
2029;2429
2027;2429
2035;2429
2030;2434
2033;2427
2037;2427
2031;2430
2031;2433
2037;2429
2033;2434
2028;2429
2027;2435
2020;2434
2027;2434
2026;2434
1995;2429
2029;2432
2026;2428
2028;2427
2028;2429
2027;2429
2033;2427
2029;2424
2028;2427
2033;2427
2036;2424
2026;2430
2031;2429
2036;2433
2028;2432
2020;2429
2027;2427
2027;2427
2027;2440
2021;2427
2027;2423
2024;2423
2027;2423
2021;2419
2025;2423
2031;2422
2028;2423
2029;2423
2031;2423
2031;2413
2031;2425
2029;2423
2028;2423
2035;2423
2026;2445
2029;2423
2027;2428
2023;2421
2029;2423
2025;2423
2026;2423
2022;2421
2030;2423
2024;2425
2035;2419
2034;2421
2034;2424
2035;2426
2031;2425
2031;2425
2029;2422
2028;2425
2027;2423
2063;2423
2027;2423
2025;2422
2025;2421
2023;2422
2029;2420
2025;2421
2025;2421
2025;2420
2029;2418
2027;2417
2031;2417
2029;2418
2031;2419
2026;2417
2031;2417
2031;2418
2030;2417
2029;2417
2031;2418
2031;2417
2031;2419
2027;2419
2025;2418
2030;2419
2030;2419
2029;2420
2025;2420
2029;2419
2029;2419
2027;2421
2028;2418
2023;2418
2021;2415
2023;2414
2021;2413
2027;2412
2024;2414
2026;2412
2028;2412
2033;2413
2008;2414
2027;2415
2026;2413
2021;2415
2023;2414
2025;2415
2025;2412
2025;2415
2025;2414
2027;2414
2030;2413
2031;2416
2030;2413
2031;2413
2030;2414
2030;2412
2031;2412
2029;2411
2030;2412
2034;2410
2032;2411
2027;2412
2022;2411
2024;2411
2029;2412
2026;2411
2026;2414
2024;2411
2028;2415
2028;2407
2029;2409
2031;2410
2031;2410
2031;2406
2031;2408
2031;2411
2033;2410
2031;2411
2031;2407
2015;2414
2029;2411
2030;2411
2024;2412
2025;2411
2028;2413
2024;2410
2025;2413
2028;2410
2025;2404
2026;2412
2031;2409
2031;2409
2029;2411
2031;2409
2030;2409
2031;2408
2029;2407
2030;2408
2031;2413
2029;2406
2028;2407
2026;2409
2027;2404
2031;2407
2024;2427
2024;2409
2025;2408
2025;2417
2031;2411
2027;2414
2026;2409
2028;2408
2029;2409
2032;2419
2031;2410
2030;2409
2033;2410
2030;2411
2031;2411
2031;2409
2027;2408
2026;2405
2024;2407
2025;2407
2026;2407
2024;2407
2022;2406
2026;2407
2025;2405
2027;2404
2028;2405
2027;2404
2049;2403
2031;2404
2031;2403
2036;2405
2031;2405
2037;2392
2031;2399
2032;2403
2027;2406
2025;2406
2021;2402
2026;2404
2026;2401
2022;2399
2025;2402
2021;2401
2027;2401
2025;2401
2030;2380
2030;2398
2031;2403
2026;2399
2031;2401
2031;2401
2031;2399
2038;2399
2029;2399
2031;2399
2029;2399
2027;2399
2025;2399
2027;2394
2026;2389
2012;2398
2023;2395
2048;2396
2029;2395
2023;2395
2027;2395
2029;2394
2029;2394
2031;2395
2029;2394
2031;2397
2048;2398
2030;2394
2031;2396
2031;2392
2030;2395
2025;2418
2011;2405
2015;2409
2004;2408
2003;2402
1997;2399
2006;2394
2019;2389
2019;2387
2019;2387
2027;2388
2025;2394
2028;2391
2027;2393
2028;2394
2024;2397
2025;2395
2031;2409
2027;2402
2027;2402
2028;2388
2025;2402
2025;2403
2020;2401
2018;2399
2023;2402
2020;2399
2019;2397
2025;2397
2031;2398
2033;2398
2031;2398
2025;2397
2029;2395
2023;2399
2034;2399
2026;2397
2027;2399
2027;2399
2026;2398
2023;2399
2021;2397
2029;2397
2025;2397
2022;2397
2021;2397
2022;2397
2023;2395
2031;2396
2023;2397
2027;2397
2027;2397
2023;2397
2030;2399
2025;2394
2027;2399
2027;2403
2027;2400
2026;2399
2027;2398
2022;2398
2023;2400
2024;2397
2020;2399
2022;2399
2020;2398
2021;2399
2027;2397
2021;2398
2023;2400
2027;2399
2028;2382
2027;2403
2028;2403
2026;2402
2030;2398
2019;2407
2025;2405
2026;2407
2026;2405
2022;2405
2016;2402
2023;2402
2020;2401
2021;2405
2019;2400
2021;2400
2021;2400
2021;2403
2027;2399
2023;2398
2026;2401
2025;2399
2028;2404
2029;2405
2028;2408
2028;2410
2027;2414
2026;2414
2022;2411
2021;2413
2017;2414
2025;2410
2021;2408
2015;2406
2019;2405
2020;2406
2022;2402
2021;2404
2022;2403
2025;2405
2031;2399
2025;2403
2033;2405
2028;2405
2027;2405
2027;2405
2023;2405
2025;2404
2032;2409
2028;2413
2021;2407
2023;2407
2023;2406
2019;2426
2015;2406
2021;2406
2028;2405
2027;2405
2023;2407
2024;2403
2024;2401
2023;2401
2026;2403
2027;2402
2026;2402
2022;2403
2026;2403
2027;2403
2026;2404
2023;2405
2048;2405
2024;2399
2020;2403
2020;2402
2025;2402
2019;2398
2025;2398
2075;2403
2008;2402
2023;2401
2027;2402
2023;2403
2033;2402
2031;2403
2027;2401
2020;2403
2025;2402
2026;2407
2026;2408
2019;2412
2023;2409
2021;2401
2030;2407
2017;2406
2019;2403
2018;2405
2028;2406
2023;2405
2020;2406
2022;2405
2027;2407
2021;2407
2027;2411
2026;2408
2027;2405
2025;2407
2022;2406
2022;2406
2029;2405
2021;2405
2019;2404
2022;2421
2020;2373
2017;2400
2022;2402
2025;2403
2017;2408
2019;2413
2010;2407
2038;2406
2020;2405
2024;2408
2024;2408
2033;2403
2027;2413
2024;2408
2026;2409
2027;2419
2030;2410
2024;2411
2025;2412
2025;2412
2024;2415
2019;2414
2022;2408
2023;2413
2022;2408
2020;2414
2024;2413
2026;2415
2026;2411
2027;2413
2050;2412
2028;2410
2026;2413
2027;2414
2029;2415
2031;2415
2029;2415
2024;2417
2025;2419
2024;2421
2029;2422
2029;2425
2028;2432
2034;2433
2038;2440
2035;2449
2023;2452
2025;2443
2015;2433
2019;2426
2021;2417
2017;2410
2025;2407
2027;2403
2026;2418
2026;2407
2031;2407
2028;2409
2029;2413
2027;2414
2025;2419
2029;2420
2023;2420
2024;2417
2027;2418
2027;2419
2025;2418
2026;2417
2031;2419
2026;2416
2039;2413
2028;2417
2027;2417
2027;2418
2027;2416
2027;2417
2035;2415
2023;2418
2048;2417
2023;2415
2021;2420
2022;2417
2019;2416
2027;2410
2025;2415
2026;2414
2021;2415
2025;2415
2025;2415
2024;2416
2029;2417
2026;2418
2029;2415
2025;2418
2025;2417
2025;2418
2030;2418
2024;2417
2024;2419
2025;2419
2021;2420
2022;2421
2020;2422
2021;2420
2023;2419
2023;2419
2023;2420
2025;2421
2030;2422
2025;2422
2031;2423
2025;2424
2023;2426
2025;2425
2021;2426
2026;2424
2028;2424
2024;2425
2025;2425
2019;2423
2022;2423
2018;2423
2018;2423
2022;2423
2025;2423
2022;2422
2023;2421
2025;2421
2030;2422
2027;2423
2026;2424
2029;2425
2029;2426
2026;2428
2026;2431
2024;2431
2048;2431
2021;2429
2022;2430
2026;2430
2017;2429
2021;2428
2020;2425
2020;2425
2023;2425
2023;2424
2021;2430
2025;2425
2023;2425
2021;2426
2024;2423
2025;2423
2026;2424
2025;2423
2025;2425
2024;2423
2027;2423
2022;2423
2021;2422
2022;2425
2023;2426
2021;2426
2026;2428
2021;2425
2021;2425
2022;2423
2021;2423
2028;2423
2021;2437
2024;2416
2027;2421
2025;2425
2027;2421
2024;2422
2025;2421
2026;2428
2025;2422
2023;2424
2019;2425
2024;2422
2021;2424
2027;2423
2018;2439
2019;2424
2015;2425
2013;2424
2021;2423
2026;2426
2022;2421
2029;2419
2021;2421
2025;2421
2027;2422
2028;2421
2023;2421
2026;2425
2029;2405
2022;2414
2036;2422
2023;2423
2025;2424
2017;2411
2022;2425
2023;2429
2027;2420
2018;2428
2021;2423
2023;2424
2022;2420
2027;2407
2025;2421
2024;2423
2020;2424
2025;2425
2025;2425
2024;2425
2030;2425
2024;2423
2022;2425
2021;2419
2018;2423
2024;2421
2019;2421
2020;2423
1991;2418
2019;2420
2022;2423
2027;2422
2025;2423
2027;2423
2027;2425
2026;2425
2027;2429
2033;2417
2029;2429
2027;2429
2027;2429
2026;2429
2022;2430
2021;2433
2021;2430
2017;2428
2018;2427
2019;2427
2018;2424
2020;2425
2020;2422
2026;2423
2025;2423
2026;2422
2031;2430
2029;2413
2027;2426
2028;2427
2026;2428
2027;2429
2029;2428
2023;2427
2019;2426
2025;2427
2019;2425
2021;2426
2019;2424
2015;2423
2022;2425
2017;2422
2023;2423
2025;2421
2023;2421
2025;2415
2027;2425
2029;2427
2026;2429
2031;2429
2029;2431
2030;2436
2026;2434
2026;2436
2048;2437
2026;2428
2023;2431
2021;2431
2017;2431
2020;2434
2020;2431
2024;2427
2023;2428
2027;2427
2025;2432
2024;2426
2017;2425
2023;2425
2031;2427
2026;2429
2026;2429
2026;2429
2027;2427
2020;2429
2022;2427
2022;2427
2019;2425
2021;2423
2020;2420
2021;2420
2020;2415
2019;2419
2019;2419
2021;2418
2027;2421
2026;2419
2029;2410
2027;2421
2028;2421
2026;2417
2028;2423
2027;2420
2035;2420
2025;2418
2020;2420
2021;2418
2020;2419
2020;2418
2013;2416
2021;2415
2021;2415
2017;2414
2022;2413
2027;2413
2026;2413
2025;2413
2026;2418
2029;2414
2028;2415
2029;2415
2024;2415
2027;2415
2030;2415
2023;2444
2022;2417
2023;2417
2024;2415
2022;2418
2023;2417
2026;2417
2018;2419
2021;2417
2021;2415
2023;2415
2026;2417
2028;2417
2020;2414
2025;2409
2027;2414
2027;2412
2025;2414
2027;2415
2024;2412
2029;2415
2025;2412
2020;2414
2023;2414
2026;2415
2015;2414
2020;2413
2018;2412
2025;2418
2019;2410
2023;2407
2022;2405
2031;2407
2027;2405
2024;2409
2029;2406
2028;2410
2025;2387
2027;2409
2025;2408
2026;2411
2025;2411
2021;2411
2021;2409
2021;2410
2014;2402
2001;2404
2020;2404
2020;2409
2021;2402
2025;2402
2026;2406
2022;2401
2027;2402
2026;2403
2029;2406
2027;2415
2026;2403
2015;2404
2027;2403
2025;2399
2021;2400
2020;2399
2020;2399
2019;2398
2022;2397
2020;2394
2023;2392
2021;2393
2020;2388
2021;2385
2024;2383
2027;2384
2022;2381
2024;2382
2021;2381
2024;2379
2018;2377
2023;2376
2026;2373
2031;2372
2019;2375
2015;2371
2023;2367
2022;2367
2017;2365
2020;2338
2020;2363
2018;2367
