2048;1988
2048;1987
2048;1987
2048;1989
2048;1989
2048;1988
2048;1994
2048;1986
2048;1989
2041;1990
2048;1988
2025;1990
2039;1987
2039;1987
2048;1988
2037;1988
2039;1987
2040;1989
2039;1988
2038;1988
2035;1987
2048;1989
2048;1988
2048;1987
2048;1989
2048;1988
2048;1988
2048;1988
2048;1987
2048;1987
2048;1988
2048;1988
2048;1988
2035;1987
2037;1989
2039;1988
2039;1989
2040;1985
2039;1987
2048;1989
2039;1987
2048;1987
2048;1988
2048;1989
2052;1988
2048;1988
2048;1986
2048;1989
2059;1988
2049;1991
2048;1986
2037;1989
2039;1985
2048;1989
2038;2003
2037;1991
2041;1982
2048;1987
2048;1987
2039;1987
2041;1991
2048;1988
2048;1988
2048;1978
2048;1989
2048;1989
2048;1988
2048;1988
2048;1989
2048;1988
2048;1987
2048;1987
2039;1988
2040;1983
2040;1989
2048;1988
2036;1994
2039;1988
2036;1989
2039;1989
2039;1988
2048;1988
2048;1988
2048;1992
2048;1991
2049;1987
2048;1988
2048;1991
2048;1987
2048;1989
2039;1996
2048;1994
2048;1989
2039;1988
2048;1989
2037;1986
2048;1988
2039;1988
2048;1989
2048;1989
2039;1988
2048;1987
2061;1987
2048;1974
2048;1987
2055;1990
2053;1987
2048;1992
2050;1989
2048;1988
2048;1987
2041;1989
2048;1994
2048;1989
2057;1985
2039;1991
2029;1987
2037;1988
2048;1989
2039;1991
2048;1985
2048;1989
2048;1987
2054;1987
2048;1990
2048;1989
2048;1987
2048;1985
2048;1989
2048;1983
2048;1987
2048;1992
2041;1971
2039;1987
2048;1987
2036;1988
2037;1988
2048;1986
2048;1987
2048;1989
2031;1988
2048;1988
2048;1988
2048;1987
2048;1988
2048;1988
2048;1988
2048;1989
2048;1979
2048;1983
2048;1988
2038;1994
2040;1986
2038;1989
2039;1986
2041;1987
2038;1989
2048;1990
2287;1988
2048;1987
2048;1987
2048;1989
2048;1986
2048;1987
2048;1983
2048;1983
2048;1987
2048;1987
2048;1989
2048;1988
2048;1969
2048;1988
2048;1993
2048;1989
2039;1986
2027;1993
2038;1987
2048;1988
2039;1988
2048;1988
2039;1985
2051;1999
2048;1989
2048;1989
2048;1987
2048;1985
2048;1987
2048;1987
2049;1977
2048;1988
2048;1989
2048;1989
2048;1988
2048;1994
2048;1988
2048;1989
2038;1988
2039;1982
2041;1988
2048;1986
2033;1983
2048;1991
2048;1989
2048;1991
2048;1984
2048;1989
2048;1989
2048;1990
2048;1987
2048;1985
2048;1988
2048;1993
2038;1989
2041;1987
2040;1987
2039;1987
2039;1988
2048;1980
2041;1988
2039;1989
2048;1990
2048;1987
2048;1986
2048;1989
2039;1988
2048;1988
2048;1988
2040;1974
2048;1988
2048;1988
2048;1988
2048;1989
2038;1989
2038;1987
2048;1990
2037;1988
2039;1989
2036;1987
2041;1988
2048;1987
2037;1993
2039;1985
2049;1987
2048;1990
2048;1988
2049;1988
2048;1986
2049;1989
2048;1985
2048;1989
2048;1988
2010;1985
2048;1985
2035;1989
2037;1988
2039;1991
2048;1987
2039;1993
2048;1989
2038;1980
2039;1987
2038;1992
2048;1982
2049;1989
2054;1988
2048;1990
2048;1987
2042;1991
2048;1989
2048;1989
2048;1988
2040;1993
2048;1989
2048;1983
2039;1989
2037;1988
2048;1988
2035;1988
2039;1987
2037;1987
2068;1986
2039;1986
2048;1984
2039;1991
2048;1987
2048;1989
2048;1988
2049;1987
2037;1987
2048;1989
2038;1988
2048;2008
2048;1988
2037;1987
2039;1989
2038;1992
2035;1989
2031;1987
2048;1987
2039;1988
2041;1992
2038;1989
2036;1987
2051;1991
2058;1988
2048;1989
2053;1983
2048;1987
2048;1990
2048;1994
2048;1988
2048;1982
2048;1985
2033;1989
2033;1982
2041;1988
2037;1988
2039;1990
2035;1983
2040;1989
2048;1983
2101;1972
2037;1989
2039;1992
2048;1991
2048;1985
2048;1989
2051;1993
2029;1991
2078;1990
2048;1990
2039;1989
2037;1989
2036;1990
2048;1988
2036;1989
2048;1990
2048;1990
2048;1988
2039;1988
2049;1988
2019;1989
2048;1989
2048;1989
2048;1988
2048;1989
2059;2024
2048;1986
2049;1989
2051;1989
2048;1987
2048;1990
2037;1989
2048;1991
2039;1990
2039;1988
2048;1992
2035;1987
2033;1988
2048;1991
2037;1989
2051;1986
2048;1990
2048;1987
2048;1986
2048;1989
2050;1989
2048;1988
2040;1989
2048;1985
2048;1990
2048;1990
2038;1994
2038;1982
2036;1985
2039;1989
2048;1986
2038;1989
2048;1987
2040;1988
2037;1990
2048;1989
2048;1989
2036;1992
2048;1987
2048;1999
2048;1989
2048;1986
2048;1989
2048;1988
2048;1989
2048;1989
2048;1989
2048;1989
2031;1991
2040;1989
2048;1985
2039;1988
2038;1987
2040;1991
2036;1991
2039;1988
2048;1989
2049;1986
2048;1983
2040;1994
2050;1994
2051;1988
2052;1989
2048;1991
2048;1988
2048;1987
2039;1991
2039;1988
2039;1985
2037;1989
2038;1989
2048;1985
2048;1990
2048;1988
2048;1989
2037;1988
2040;1990
2048;1989
2048;1989
2048;1988
2048;1989
2048;1989
2048;1994
2048;1989
2037;1991
2040;1990
2048;1989
2052;1987
2037;1986
2048;1988
2035;1986
2039;2002
2036;1988
2034;1988
2048;1992
2037;1986
2041;1989
2039;1987
2040;1987
2036;2005
2056;1989
2048;1992
2050;1986
2048;1990
2035;1989
2041;1990
2048;1990
2048;1985
2037;1985
2038;1987
2033;1988
2041;1989
2048;1994
2039;1988
2039;1988
2041;1983
2038;1988
2048;1983
2048;1989
2048;1988
2050;1989
2048;1987
2048;1978
2048;1991
2033;1971
2048;1989
2048;1994
2049;1988
2048;1989
2036;1987
2034;1989
2059;1989
2048;1988
2048;1987
2048;1987
2031;1987
2037;1988
2048;1988
2050;1988
2048;1989
2048;1988
2056;1987
2049;1988
2031;1988
2034;1989
2048;1991
2049;1986
2055;1989
2018;1990
2038;1989
2049;1988
2048;1990
2031;1989
2048;1987
2048;1988
2039;1990
2040;1989
2051;1989
2048;1993
2048;2007
2053;1987
2048;1988
2048;1988
2048;1987
2048;1991
2041;2012
2048;1987
2048;1988
2039;1988
2013;1985
2031;1991
2037;1992
2048;1988
2051;1988
2033;1991
2041;1988
2048;1987
2048;1989
2048;1988
2048;1989
2057;1987
2048;1988
2035;1987
2048;1989
2038;1988
2048;1989
2048;1987
2048;1986
2040;1988
3218;1750
3556;1515
1984;1588
1856;1647
1895;1691
1955;1726
1997;1751
2020;1769
2039;1780
2063;1797
2071;1810
2068;1814
2083;1816
2075;1822
2086;1831
2078;1838
2095;1830
2098;1822
2106;1827
2111;1847
2083;1831
2078;1837
2092;1837
2111;1834
2099;1832
2093;1839
2083;1843
2090;1841
2092;1843
2093;1843
2099;1845
2099;1847
2104;1847
2104;1845
2107;1845
2086;1846
2093;1850
2077;1850
2082;1849
2083;1850
2089;1853
2095;1851
2094;1850
2088;1850
2094;1852
2089;1851
2089;1867
2080;1851
2094;1850
2092;1851
2091;1851
2095;1852
2083;1851
2104;1853
2107;1850
2092;1851
2088;1846
2093;1851
2095;1851
2089;1847
2099;1852
2077;1850
2082;1853
2099;1852
2091;1851
2090;1851
2095;1851
2093;1852
2098;1852
2098;1852
2102;1851
2092;1848
2099;1850
2100;1851
2099;1856
2098;1851
2088;1850
2092;1851
2095;1851
2108;1850
2101;1850
2092;1849
2086;1851
2101;1854
2095;1849
2094;1850
2093;1851
2101;1849
2079;1851
2082;1851
2102;1851
2110;1848
2106;1851
2103;1847
2104;1853
2104;1850
2099;1851
2083;1851
2094;1849
2093;1851
2091;1853
2104;1850
2089;1853
2085;1853
2100;1853
2093;1851
2091;1831
2102;1852
2095;1852
2099;1846
2100;1851
2087;1854
2105;1852
2099;1853
2098;1853
2104;1850
2095;1853
2075;1857
2107;1851
2116;1852
2100;1854
2088;1852
2116;1854
2090;1849
2091;1853
2103;1853
2105;1857
2087;1863
2098;1865
2094;1852
2107;1852
2098;1858
2093;1853
2101;1856
2109;1854
2095;1850
2102;1854
2094;1852
2083;1850
2100;1853
2121;1853
2092;1856
2101;1854
2094;1851
2078;1855
2095;1853
2097;1851
2092;1855
2101;1854
2086;1853
2106;1856
2104;1853
2110;1860
2109;1856
2099;1855
2105;1857
2095;1857
2094;1858
2081;1856
2088;1857
2106;1855
2110;1860
2102;1857
2095;1855
2105;1855
2089;1858
2086;1851
2099;1855
2099;1857
2099;1857
2099;1859
2111;1860
2097;1863
2106;1860
2108;1861
2105;1858
2079;1862
2103;1861
2106;1862
2093;1859
2084;1861
2103;1862
2098;1861
2094;1874
2097;1865
2085;1865
2084;1863
2110;1866
2087;1864
2096;1863
2090;1865
2120;1866
2093;1870
2074;1869
3381;1802
4082;1901
1690;1953
1585;1983
1905;2002
2070;2024
2123;2029
2114;2038
2113;2048
2146;2048
2153;2054
2177;2054
2143;2052
2134;2057
2129;2059
2152;2061
2143;2054
2130;2061
2133;2063
2142;2063
2116;2063
2153;2060
2177;2067
2122;2060
2131;2062
2141;2065
2146;2065
2091;2066
2156;2066
2165;2057
2165;2065
2115;2066
2155;2068
2145;2067
2133;2069
2147;2068
2141;2065
2123;2072
2149;2071
2148;2068
2131;2035
2145;2065
2181;2066
2106;2070
2161;2072
2142;2072
2113;2071
2124;2069
2147;2076
2163;2073
2137;2071
2117;2071
2139;2069
2149;2074
2137;2071
2143;2076
2157;2073
2133;2071
2141;2075
2159;2077
2125;2075
2157;2074
2140;2077
2146;2077
2132;2077
2155;2075
2147;2079
2143;2079
2111;2075
2142;2072
2121;2078
2151;2079
2133;2075
2103;2075
2158;2078
2169;2079
2150;2080
2139;2082
2142;2077
2133;2080
2164;2082
2146;2081
2142;2080
2095;2077
2122;2080
2153;2080
2155;2085
2135;2080
2148;2079
2123;2077
2138;2076
2127;2079
2103;2082
2137;2081
2154;2081
2164;2080
2131;2080
2095;2080
2138;2081
2179;2079
2133;2081
2134;2087
2124;2078
2123;2080
2136;2078
2127;2073
2148;2067
2126;2077
2095;2080
2171;2076
2138;2075
2109;2074
2112;2075
2123;2078
2159;2075
2113;2076
2164;2074
2127;2075
2101;2075
2137;2076
2155;2075
2154;2074
2122;2073
2082;2077
2138;2074
2152;2069
2101;2074
2075;2073
2145;2070
2203;2073
2138;2070
2086;2065
2127;2069
2140;2067
2124;2067
2126;2068
2127;2067
2130;2061
2127;2063
2117;2063
2178;2066
2159;2061
2083;2065
2100;2062
2096;2062
2163;2061
2158;2061
2070;2058
2098;2063
2116;2059
2171;2059
2110;2058
2117;2058
2149;2061
2115;2059
2105;2055
2087;2056
2130;2055
2191;2050
2102;2058
2115;2053
2125;2052
2117;2053
2118;2026
2145;2049
2138;2048
2106;2048
2090;2048
2093;2048
2152;2048
2109;2048
2122;2048
2118;2048
2122;2048
2148;2024
2105;2048
2130;2048
2121;2034
2140;2048
2115;2048
2103;2048
2093;2048
2137;2048
2154;2048
2103;2041
2094;2035
2099;2039
2116;2038
2152;2035
2119;2029
2051;2038
2106;2039
2167;2035
2135;2041
2117;2036
2150;2031
2048;2033
2149;2031
2121;2035
2109;2034
2126;2031
2106;2033
2129;2036
2145;2031
2110;2033
2101;2033
2101;2030
2076;2031
2141;2029
2087;2029
2130;2037
2153;2027
2068;2030
2115;2028
2124;2027
2145;2027
2087;2026
2087;2018
2128;2021
2133;2010
2145;2027
2109;2026
2075;2023
2078;2026
2142;2025
2137;2023
2127;2026
2109;2025
2154;2023
2142;2020
2062;2020
2117;2022
2093;1991
2110;2019
2084;2024
2149;2022
2075;2020
2155;2019
2180;2019
2066;2018
2133;2018
2095;2020
2114;2017
2122;2017
2130;2016
2130;2020
2127;2015
2060;2011
2103;2013
2115;2020
2141;2019
2167;2011
2095;2011
2021;2012
2149;2013
2158;2010
2090;2015
2099;2010
2147;2009
2130;2005
2080;2007
2087;2010
2176;2009
2091;2008
2087;2009
2147;2009
2089;2009
2071;2002
2125;2006
2150;2006
2129;2005
2093;2007
2108;2006
2119;2005
2048;2005
2085;2004
2125;2005
2159;2005
2065;1991
2147;2005
2116;2003
2134;2003
2098;2002
2069;2001
2058;2003
2153;2001
2110;2002
2135;2003
2125;2000
2111;1999
2051;2003
2102;2000
2133;2001
2082;1997
2105;2001
2121;1998
2139;1997
2109;1997
2070;1997
2092;1994
2153;1995
2127;1992
2055;1997
2121;1996
2116;1993
2120;1998
2087;1995
2095;1984
2091;1995
2111;1991
2093;1995
2169;1995
2133;1994
2001;1993
2120;1994
2144;1993
2126;1992
2082;1992
2048;1991
2133;1993
2147;1991
2101;1991
2114;1991
2147;1991
2092;1990
2069;1992
2142;1990
2108;1989
2081;1989
2111;1987
2089;1987
2076;1988
2063;1989
2125;1987
2154;1987
2090;1989
2115;1987
2143;1990
2159;1987
1994;1986
2082;1985
2133;1985
2192;1985
2130;1983
2052;1985
2052;1985
2151;1985
2116;1985
2084;1981
2082;1983
2108;1984
2117;1983
2108;1983
2017;1982
2132;1981
2097;1981
2107;1983
2095;1983
2099;1981
2171;1966
2107;1976
2031;1979
2120;1979
2109;1979
2112;1979
2077;1979
2145;1978
2088;1975
2031;1978
2131;1977
2073;1978
2079;1977
2135;1972
2170;1977
2065;1978
2088;1977
2220;1978
1988;1983
2141;1983
2131;1983
2083;1983
2061;1996
2100;1986
2127;1983
2050;1984
2176;1981
2090;1981
2021;1983
2125;1983
2123;1982
2069;1981
2081;1981
2145;1979
2125;1975
2103;1986
2048;1979
2091;1977
2117;1983
2123;1981
2095;1979
2167;1977
2129;1977
2048;1983
2048;1977
2134;1978
2104;1982
2127;1981
2083;1978
2109;1973
2155;1975
2050;1976
2080;1976
2106;1974
2141;1975
2011;1975
2127;1986
2140;1975
2086;1979
2065;1975
2110;1974
2114;1969
2085;1971
2114;1974
2119;1972
2109;1973
2122;1973
2078;1974
2065;1972
2083;1971
2115;1976
2085;1970
2053;1972
2103;1979
2086;1973
2089;1973
2127;1971
2127;1973
2059;1973
2078;1975
2091;1970
2149;1971
2120;1973
2071;1976
2082;1971
2091;1971
2098;1971
2095;1973
2154;1971
2170;1971
1957;1972
1999;1967
2146;1973
2124;1971
2079;1968
2114;1971
2100;1970
2109;1971
2139;1967
2125;1969
2029;1969
2080;1965
2145;1965
2127;1967
2039;1959
2107;1967
2086;1970
2108;1969
2095;1966
2093;1967
2105;1967
2155;1965
2014;1966
2065;1967
2091;1965
2087;1966
2120;1968
2099;1967
2089;1965
2090;1964
2114;1963
2103;1963
2059;1961
2112;1970
2118;1964
2061;1963
2088;1962
2095;1968
2077;1963
2071;1963
2131;1955
2104;1960
2121;1959
2038;1961
2087;1961
2122;1967
2093;1959
2048;1961
2098;1959
2165;1960
2102;1956
2086;1956
2087;1957
2103;1958
2078;1958
2078;1958
2134;1958
2117;1974
1989;1955
2058;1960
2077;1949
2135;1955
2142;1954
2036;1955
2064;1956
2094;1954
2078;1952
2092;1954
2086;1951
2077;1953
2104;1954
2123;1953
2065;1953
2095;1954
2111;1952
1995;1951
2065;1951
2154;1950
2126;1951
2063;1950
2081;1949
2066;1952
2082;1953
2098;1959
2119;1949
2074;1947
2036;1947
2078;1947
2143;1947
2090;1939
2086;1943
2054;1945
2151;1947
2048;1946
2064;1947
2142;1944
2065;1942
2048;1944
2112;1926
2048;1942
2133;1944
2110;1941
2030;1942
2055;1942
2076;1939
2111;1941
2117;1941
2095;1941
2059;1950
2107;1941
2107;1945
2110;1941
2037;1939
2075;1941
2234;1937
2048;1933
1983;1937
2069;1939
2067;1941
2124;1944
2119;1930
2119;1935
2063;1935
2107;1940
2123;1936
2078;1935
2030;1933
2085;1936
2077;1935
2097;1932
2111;1939
2103;1933
2087;1935
2102;1931
2033;1933
2065;1931
2078;1933
2078;1931
2146;1933
2116;1931
2052;1932
2003;1929
2069;1934
2093;1933
2115;1931
2093;1930
2066;1930
2075;1926
2109;1927
2074;1929
2029;1933
2107;1927
2132;1930
2082;1929
2075;1928
2110;1931
2069;1928
2054;1928
2087;1929
2091;1933
2093;1919
2085;1929
2091;1927
2113;1929
2048;1931
2050;1926
2083;1925
2061;1928
2091;1958
2106;1929
2087;1927
2107;1928
2061;1922
2059;1923
2080;1922
2125;1934
2129;1924
2008;1930
2031;1929
2134;1923
2021;1922
2104;1923
2099;1923
2036;1921
2116;1916
2075;1922
2102;1922
2086;1921
2071;1920
2084;1919
2096;1921
2065;1918
2033;1921
2119;1915
2069;1921
2065;1916
2069;1918
2158;1916
2095;1919
2009;1916
2048;1919
2074;1917
2093;1925
2079;1923
2069;1916
2063;1927
2064;1912
2090;1915
2089;1921
2068;1914
2142;1913
2055;1915
2005;1913
2130;1913
2084;1917
2073;1902
2083;1912
2074;1915
2076;1914
2062;1913
2062;1912
2127;1912
2076;1912
2033;1909
2091;1919
2067;1915
2091;1911
2051;1911
2073;1914
2095;1913
2089;1910
2063;1908
2068;1916
2074;1911
2105;1905
2099;1912
2071;1909
2036;1909
2058;1920
2048;1909
2085;1909
2085;1903
2094;1910
2079;1907
2059;1909
2073;1907
2078;1908
2073;1914
2098;1908
2082;1912
2080;1907
2006;1907
2069;1907
2121;1907
2059;1913
2071;1908
2072;1908
2087;1907
2060;1902
2071;1908
2089;1901
2105;1908
2040;1903
2059;1905
2072;1916
2088;1903
2048;1903
2079;1904
2115;1906
2069;1903
2022;1903
2129;1901
2162;1903
2003;1903
1989;1905
2107;1906
2151;1906
2027;1902
2092;1900
2048;1902
2077;1896
2089;1903
2086;1901
2077;1902
2061;1906
2067;1901
2069;1901
2070;1900
2066;1897
2082;1901
2076;1900
2079;1904
2091;1900
2062;1901
2056;1900
2087;1900
2070;1896
2037;1898
2081;1901
2071;1894
2105;1901
2064;1900
2048;1902
2086;1900
2078;1899
2056;1899
2078;1899
2071;1899
2077;1898
2111;1896
2066;1900
2018;1896
2053;1895
2064;1901
2110;1899
2077;1898
2074;1899
2086;1899
2061;1899
2057;1896
2061;1898
2071;1897
2050;1897
2067;1897
2071;1897
2079;1897
2076;1897
2083;1896
2070;1897
2071;1899
2077;1896
2071;1896
2137;1895
2010;1896
2048;1895
2048;1894
2091;1895
2112;1899
2074;1893
2048;1895
2048;1895
2082;1895
2087;1894
2091;1895
2052;1896
2019;1895
2107;1895
2144;1894
2014;1893
2048;1894
2074;1897
2106;1895
2134;1899
2038;1895
2073;1894
2036;1892
2075;1891
2068;1891
2080;1895
2069;1895
2060;1893
2051;1893
2069;1897
2103;1892
2054;1893
2075;1894
2017;1893
2085;1894
2097;1892
2083;1894
2083;1893
2061;1897
2063;1893
2084;1891
2109;1892
2077;1892
2081;1896
2048;1893
2013;1892
2070;1894
2069;1892
2095;1893
2109;1893
2002;1891
2065;1890
2087;1885
2090;1893
2102;1893
2031;1891
2056;1891
2094;1892
2089;1893
2052;1892
2102;1895
2037;1891
2049;1892
2084;1892
2104;1892
2055;1892
2054;1895
2077;1891
2095;1891
2069;1893
2063;1890
2035;1891
2055;1891
2095;1907
2051;1892
2079;1892
2106;1890
2080;1890
2033;1887
2078;1891
2093;1891
2078;1895
2031;1886
2065;1890
2078;1891
2053;1890
2073;1887
2079;1889
2085;1889
2050;1893
2056;1891
2041;1889
2081;1891
2063;1891
2073;1889
2077;1896
2093;1889
2066;1892
2056;1888
2081;1891
2075;1890
2048;1890
2082;1890
2084;1888
2082;1888
2063;1898
2015;1889
2089;1886
2095;1911
2075;1874
2036;1887
2061;1887
2105;1896
2053;1887
2074;1889
2074;1890
2056;1887
2071;1889
2084;1888
2062;1887
2096;1887
2063;1889
2048;1887
2088;1887
2127;1888
2034;1887
2017;1888
2018;1885
2073;1887
2107;1887
2091;1886
2054;1886
2022;1883
2081;1886
2082;1889
2063;1883
2052;1887
2069;1886
2048;1887
2093;1886
2068;1887
2048;1887
2102;1886
2063;1883
2048;1887
2063;1887
2087;1887
2055;1887
2061;1884
2048;1883
2083;1894
2010;1886
2080;1889
2067;1886
2127;1886
2071;1887
2053;1887
2058;1885
2092;1886
2073;1887
2052;1889
2097;1890
2102;1882
2038;1889
2077;1886
2122;1891
2063;1891
2059;1890
2074;1893
2116;1892
2124;1893
2007;1895
2086;1895
2124;1897
2107;1900
2076;1900
2086;1903
2117;1905
2114;1906
2080;1908
2078;1906
2121;1910
2093;1918
2094;1918
2119;1922
2127;1927
2064;1925
2031;1930
2093;1931
2112;1924
2123;1933
2063;1947
2087;1937
2085;1971
2059;1942
2095;1951
2085;1943
2074;1945
2103;1943
2154;1947
2080;1940
2048;1949
2084;1946
2113;1951
2051;1953
2061;1954
2104;1953
2139;1955
2102;1956
2030;1954
2117;1961
2102;1957
2059;1958
2111;1968
2065;1958
2095;1963
2105;1963
2090;1961
2067;1963
2123;1959
2073;1963
2074;1962
2084;1965
2084;1965
2096;1966
2102;1958
2099;1965
2048;1967
2065;1967
2095;1969
2097;1967
2048;1967
2077;1968
2125;1967
2114;1968
2060;1970
2085;1952
2090;1970
2067;1972
2097;1969
2119;1971
2113;1975
2048;1969
2057;1971
2101;1970
2080;1971
2093;1983
2077;1971
2081;1966
2099;1974
2085;1971
2077;1971
2078;1974
2088;1973
2097;1972
2071;1973
2056;1973
2112;1973
2114;1974
2080;1971
2086;1974
2085;1975
2100;1973
2101;1975
2095;1975
2100;1975
2055;1975
2071;1976
2074;1976
2107;1975
2053;1977
2079;1978
2104;1977
2048;1977
2069;1976
2104;1975
2115;1976
2101;1952
2051;1973
2097;1967
2063;1979
2066;1975
2086;1976
2116;1981
2088;1976
2084;1975
2066;1978
2102;1969
2078;1966
2063;1975
2065;1968
2088;1973
2108;1976
2078;1975
2082;1967
2069;1973
2081;1974
2113;1950
2069;1971
2066;1974
2105;1974
2154;1974
2013;1972
2059;1973
2071;1976
2112;1973
2114;1969
2065;1977
2071;1973
2088;1974
2061;1975
2082;1974
2108;1975
2081;1971
2063;1977
2072;1967
2107;1973
2053;1971
2083;1974
2084;1973
2093;1967
2063;1973
2074;1975
2117;1971
2048;1969
2078;1971
2085;1972
2101;1971
2085;1970
2039;1972
2104;1975
2031;1967
2119;1971
2082;1978
2015;1970
2082;1971
2099;1966
2111;1965
2092;1991
2083;1969
2101;1972
2072;1967
2034;1968
2091;1969
2119;1961
2073;1967
2048;1966
2055;1967
2075;1968
2077;1967
2130;1959
2071;1967
2067;1972
2061;1969
2094;1967
2062;1967
2083;1967
2086;1977
2088;1967
2115;1966
2056;1966
2084;1947
2107;1966
2058;1971
2098;1967
2069;1966
2092;1966
2083;1965
2070;1965
2074;1967
2073;1966
2076;1966
2083;1965
2113;1967
2066;1966
2048;1967
2089;1965
2133;1963
2048;1965
2048;1967
2078;1967
2103;1968
2079;1966
2077;1966
2066;1961
2085;1965
2099;1967
2065;1967
2071;1967
2075;1965
2073;1966
2095;1965
2048;1967
2075;1964
2101;1965
2018;1960
2095;1965
2104;1964
2068;1965
2066;1966
2103;1956
2086;1952
2069;1964
2071;1962
2075;1965
2077;1958
2091;1961
2066;1961
2059;1968
2039;1963
2098;1963
2085;1961
2066;1962
2089;1962
2072;1955
2075;1963
2071;1967
2082;1958
2073;1961
2101;1964
2080;1963
2077;1960
2066;1959
2093;1957
2019;1959
2107;1960
2083;1965
2048;1959
2075;1959
2081;1959
2076;1956
2069;1954
2078;1957
2071;1958
2074;1954
2074;1954
2061;1958
2099;1960
2078;1955
2066;1931
2090;1956
2081;1956
2068;1953
2048;1957
2082;1949
2082;1954
2077;1954
2069;1955
2066;1956
2066;1959
2069;1955
2076;1953
2066;1954
2066;1957
2057;1952
2074;1951
2099;1950
2048;1947
2065;1969
2095;1949
2084;1953
2062;1949
2087;1948
2058;1955
2076;1947
2069;1948
2085;1948
2073;1951
2077;1947
2054;1947
2063;1919
2052;1950
2070;1947
2095;1945
2089;1944
2067;1944
2066;1945
2083;1942
2082;1943
2079;1949
2075;1969
2049;1943
2066;1942
2113;1943
2030;1943
2059;1943
2092;1940
2079;1942
2053;1954
2048;1946
2072;1939
2086;1941
2077;1936
2037;1939
2067;1939
2062;1939
2061;1939
2078;1938
2078;1939
2050;1938
2093;1939
2070;1935
2053;1940
2073;1938
2102;1939
2040;1938
2074;1943
2051;1939
2063;1936
2053;1936
2085;1936
2074;1936
2057;1935
2102;1935
2058;1935
2027;1934
2068;1937
2097;1938
2069;1933
2065;1934
2066;1933
2065;1934
2080;1934
2088;1935
2071;1933
2075;1933
2053;1935
2052;1932
2068;1932
2058;1936
2066;1927
2085;1931
2063;1931
2063;1933
2067;1931
2060;1933
2062;1931
2068;1931
2062;1931
2095;1930
2060;1930
2071;1927
2073;1931
2048;1926
2069;1930
2082;1931
2076;1929
2041;1929
2051;1929
2077;1929
2080;1928
2048;1928
2080;1928
2060;1927
2048;1928
2087;1927
2058;1926
2069;1934
2070;1929
2082;1925
2082;1925
2080;1930
2050;1930
2021;1922
2095;1943
2033;1928
2073;1925
2080;1917
2076;1952
2053;1927
2071;1924
2063;1931
2055;1924
2058;1924
2065;1923
2052;1924
2063;1924
2068;1923
2072;1915
2065;1923
2080;1925
2072;1921
2069;1924
2065;1923
2051;1923
2054;1923
2078;1921
2079;1923
2069;1924
2055;1921
2051;1919
2054;1920
2063;1920
2075;1920
2057;1922
2067;1919
2067;1921
2079;1921
2062;1918
2055;1919
2079;1919
2083;1919
2075;1921
2034;1919
2085;1918
2023;1918
2077;1917
2085;1917
2059;1917
2050;1914
2066;1917
2049;1918
2065;1919
2058;1916
2066;1916
2053;1915
2052;1915
2065;1915
2062;1915
2061;1914
2089;1915
2049;1910
2062;1917
2041;1919
2079;1909
2068;1918
2048;1912
2058;1919
2066;1914
2075;1914
2051;1913
2056;1912
2050;1909
2070;1919
2063;1911
2065;1911
2060;1913
2048;1913
2071;1911
2086;1914
2055;1911
2050;1910
2054;1909
2055;1917
2058;1902
2063;1911
2085;1909
2048;1910
2060;1909
2073;1910
2049;1911
2048;1907
2066;1905
2055;1908
2057;1908
2051;1915
2065;1909
2073;1907
2062;1913
2083;1903
2049;1907
2051;1908
2076;1910
2078;1909
2050;1905
2057;1905
2059;1910
2061;1906
2061;1906
2051;1905
2057;1906
2057;1906
2080;1905
2061;1904
2050;1902
2048;1905
2068;1905
2086;1906
2060;1906
2066;1905
2081;1905
2069;1911
2076;1907
2082;1909
2050;1903
2077;1909
2079;1907
2067;1901
2071;1909
2038;1903
2063;1911
2068;1905
2072;1909
2082;1916
2067;1913
2038;1915
2085;1916
2082;1916
2052;1925
2075;1916
2092;1923
2077;1919
2050;1918
2062;1923
2057;1920
2075;1921
2073;1917
2089;1928
2063;1924
2048;1925
2055;1919
2091;1924
2053;1925
2057;1925
2076;1924
2075;1921
2053;1925
2073;1922
2050;1926
2064;1927
2069;1925
2075;1929
2074;1928
2067;1933
2060;1927
2074;1920
2058;1929
2058;1929
2068;1929
2071;1933
2040;1929
2073;1929
2066;1933
2068;1930
2064;1933
2071;1930
2073;1930
2068;1932
2063;1931
2079;1926
2068;1931
2074;1930
2065;1931
2072;1937
2072;1933
2063;1930
2082;1934
2048;1932
2054;1930
2071;1933
2071;1932
2037;1935
2072;1937
2071;1932
2058;1941
2067;1930
2062;1933
2068;1940
2065;1933
2061;1931
2075;1944
2071;1941
2078;1931
2056;1937
2074;1931
2062;1935
2091;1930
2031;1930
2048;1923
2077;1908
2063;1934
2051;1935
2059;1933
2076;1934
2063;1934
2074;1933
2072;1934
2048;1935
2063;1934
2086;1938
2073;1932
2062;1933
2055;1932
2037;1931
2085;1938
2069;1933
2069;1933
2066;1933
2066;1934
2054;1937
2059;1933
2070;1933
2049;1932
2068;1933
2054;1932
2066;1931
2058;1932
2068;1932
2072;1933
2060;1933
2075;1934
2065;1932
2064;1935
2066;1933
2058;1933
2086;1931
2058;1931
2039;1937
2075;1931
2055;1933
2057;1933
2067;1932
2031;1930
2068;1931
2079;1930
2060;1931
2068;1933
2064;1931
2058;1931
2071;1929
2075;1927
2062;1931
2088;1931
2063;1933
2030;1930
2069;1933
2077;1934
2069;1931
2066;1929
2048;1927
2070;1929
2053;1931
2058;1929
2077;1931
2049;1934
2055;1935
2061;1933
2062;1929
2069;1921
2071;1927
2059;1934
2079;1929
2069;1929
2062;1928
2053;1930
2058;1938
2048;1927
2065;1927
2085;1918
2059;1928
2048;1929
2073;1927
2055;1930
2048;1927
2084;1927
2085;1927
2067;1929
2055;1929
2055;1927
2068;1929
2069;1927
2067;1934
2053;1928
2054;1929
2074;1926
2069;1927
2059;1923
2052;1923
2080;1927
2048;1927
2080;1927
2060;1926
2055;1927
2063;1924
2059;1924
2055;1925
2074;1925
2062;1928
2080;1925
2048;1927
2056;1937
2071;1927
2069;1923
2062;1922
2057;1923
2079;1927
2050;1923
2048;1923
2058;1923
2070;1922
2063;1923
2082;1933
2026;1926
2063;1924
2036;1926
2052;1923
2066;1923
2075;1926
2074;1920
2049;1922
2066;1924
2060;1923
2051;1922
2071;1921
2071;1924
2060;1914
2058;1926
2052;1918
2053;1925
2058;1925
2049;1921
2074;1919
2059;1921
2048;1922
2063;1921
2059;1919
2058;1919
2051;1919
2061;1919
2051;1925
2071;1919
2083;1922
2055;1894
2051;1924
2058;1918
2067;1920
2048;1922
2057;1918
2066;1919
2057;1921
2048;1921
2048;1924
2063;1918
2048;1921
2048;1917
2062;1915
2050;1921
2083;1917
2029;1918
2070;1916
2069;1916
2059;1915
2055;1913
2048;1917
2048;1915
2069;1916
2063;1917
2057;1917
2066;1913
2048;1915
2052;1917
2048;1915
2055;1923
2058;1914
2054;1913
2061;1917
2085;1913
2037;1913
2027;1915
2069;1917
2057;1913
2088;1913
2052;1913
2048;1902
2056;1912
2063;1913
2048;1909
2074;1911
2057;1909
2059;1912
2060;1907
2050;1911
2056;1911
2063;1914
2051;1911
2048;1911
2068;1910
2051;1910
2056;1909
2056;1911
2069;1909
2048;1907
2056;1909
2019;1909
2051;1910
2080;1910
2048;1909
2057;1905
2048;1919
2053;1909
2053;1911
2051;1907
2087;1905
2041;1906
2023;1909
2071;1909
2063;1907
2051;1909
2064;1909
2061;1910
2065;1909
2058;1907
2048;1909
2056;1913
2083;1909
2077;1909
2061;1908
2031;1909
2069;1909
2071;1908
2052;1911
2055;1911
2059;1911
2065;1911
2057;1910
2057;1910
2065;1911
2091;1913
2061;1913
2066;1912
2067;1913
2056;1911
2069;1915
2069;1915
2075;1915
2048;1916
2052;1916
2072;1915
2065;1917
2080;1919
2048;1917
2081;1919
2065;1918
2048;1919
2063;1919
2048;1926
2058;1919
2048;1920
2076;1919
2093;1923
2080;1923
2048;1920
2069;1921
2067;1923
2071;1924
2067;1925
2062;1925
2060;1927
2074;1927
2050;1928
2058;1927
2065;1929
2066;1930
2063;1932
2075;1931
2059;1931
2081;1931
2056;1933
2069;1933
2063;1935
2052;1933
2069;1936
2086;1935
2082;1935
2062;1935
2039;1926
2050;1936
2078;1934
2086;1936
2049;1937
2067;1937
2066;1920
2068;1938
2063;1941
2066;1937
2057;1938
2079;1938
2066;1936
2057;1942
2066;1939
2071;1939
2057;1940
2059;1941
2101;1939
2051;1940
2064;1941
2059;1935
2067;1942
2070;1940
2068;1944
2055;1941
2033;1943
2070;1942
2075;1942
2067;1942
2059;1946
2078;1942
2068;1941
2053;1942
2061;1941
2081;1939
2079;1948
2057;1940
2049;1967
2100;1943
2073;1942
2049;1942
2069;1943
2074;1941
2040;1939
2039;1944
2066;1949
2083;1939
2074;1942
2055;1940
2058;1943
2065;1945
2076;1939
2054;1943
2072;1944
2081;1947
2062;1943
2069;1937
2068;1943
2066;1940
2077;1933
2054;1923
2069;1943
2058;1945
2060;1943
2057;1942
2057;1941
2075;1945
2036;1943
2061;1935
2069;1943
2065;1943
2071;1944
2065;1940
2075;1945
2077;1943
2063;1942
2067;1953
2065;1943
2064;1945
2069;1941
2083;1945
2057;1943
2068;1945
2053;1946
2060;1946
2051;1945
2058;1961
2064;1943
2061;1944
2065;1954
2065;1943
2065;1945
2063;1944
2082;1942
2052;1943
2060;1945
2069;1945
2090;1943
2077;1941
2031;1943
2065;1943
2094;1944
2073;1943
2063;1943
2053;1943
2058;1941
2051;1944
2013;1943
2072;1932
2060;1939
2069;1939
2065;1947
2066;1944
2066;1943
2058;1942
2021;1941
2077;1942
2065;1942
2066;1942
2062;1943
2048;1939
2105;1943
2082;1943
2031;1941
2053;1926
2071;1945
2056;1943
2058;1951
2074;1941
2072;1941
2054;1940
2076;1943
2063;1941
2064;1942
2065;1940
2063;1943
2061;1940
2063;1940
2058;1939
2078;1939
2057;1937
2054;1939
2055;1938
2064;1937
2065;1939
2051;1942
2065;1945
2066;1937
2062;1938
2050;1941
2069;1937
2068;1936
2067;1947
2063;1937
2066;1947
2052;1938
2048;1938
2067;1938
2073;1939
2053;1938
2051;1936
2061;1936
2074;1937
2070;1936
2059;1935
2051;1937
2054;1938
2059;1938
2062;1935
2057;1943
2063;1938
2058;1935
2073;1934
2048;1935
2066;1933
2075;1931
2063;1935
2058;1935
2058;1936
2053;1935
2058;1935
2058;1934
2063;1935
2059;1938
2056;1934
2050;1935
2054;1933
2067;1937
2059;1933
2059;1932
2057;1934
2034;1934
2065;1934
2071;1933
2064;1935
2048;1956
2063;1932
2075;1934
2057;1929
2062;1933
2048;1911
2059;1935
2057;1931
2056;1932
2070;1931
2048;1930
2048;1931
2052;1937
2052;1931
2061;1957
2056;1935
2071;1931
2068;1931
2057;1931
2025;1931
2067;1923
2066;1933
2070;1932
2048;1932
2062;1927
2067;1927
2048;1929
2048;1929
2078;1929
2035;1935
2015;1928
2071;1927
2060;1929
2041;1931
2060;1927
2055;1928
2053;1928
2066;1928
2060;1922
2058;1927
2061;1927
2063;1931
2068;1929
2048;1927
2051;1927
2067;1929
2039;1919
2027;1929
2054;1926
2078;1925
2034;1926
2031;1924
2074;1926
2069;1925
2053;1926
2041;1923
2062;1925
2063;1925
2051;1923
2053;1925
2060;1924
2067;1920
2048;1924
2066;1923
2033;1924
2059;1929
2055;1923
2051;1923
2049;1924
2056;1923
2035;1916
2069;1923
2050;1928
2068;1923
2055;1923
2048;1923
2055;1928
2056;1923
2071;1919
2051;1921
2055;1923
2060;1922
2059;1922
2060;1913
2048;1921
2076;1920
2054;1921
2035;1920
2050;1921
2048;1921
2050;1921
2056;1922
2048;1919
2057;1920
2048;1919
2061;1918
2061;1919
2048;1919
2065;1919
2063;1915
2053;1921
2077;1908
2065;1916
2048;1919
2038;1917
2053;1919
2063;1919
2039;1919
2053;1918
2057;1918
2049;1925
2048;1919
2048;1917
2050;1906
2048;1912
2052;1918
2061;1919
2048;1918
2074;1916
2049;1917
2050;1919
2035;1904
2070;1915
2067;1914
2029;1912
2053;1918
2077;1919
2031;1917
2051;1916
2063;1915
2035;1916
2054;1915
2049;1915
2052;1912
2052;1931
2058;1916
2033;1901
2058;1917
2069;1914
2048;1908
2048;1915
2058;1915
2063;1916
2052;1915
2048;1917
2056;1914
2062;1913
2055;1915
2041;1915
2048;1914
2050;1915
2049;1914
2048;1915
2060;1909
2050;1914
2029;1910
2069;1918
2038;1911
2048;1916
2052;1913
2050;1913
2067;1915
2052;1919
2063;1909
2050;1911
2057;1912
2048;1913
2048;1910
2060;1913
2048;1911
2056;1911
2052;1912
2027;1910
2048;1911
2059;1911
2056;1910
2051;1896
2048;1908
2053;1912
2065;1908
2054;1911
2039;1903
2052;1903
2052;1911
2056;1909
2048;1910
2052;1908
2048;1911
2048;1909
2050;1909
2056;1911
2048;1909
2041;1921
2052;1909
2051;1913
2055;1909
2048;1904
2048;1909
2052;1903
2057;1903
2071;1908
2053;1907
2069;1906
2039;1908
2037;1911
2057;1906
2054;1890
2038;1896
2048;1909
2057;1907
2048;1906
2028;1907
2048;1907
2048;1909
2050;1907
2049;1910
2051;1905
2048;1907
2054;1906
2056;1908
2056;1907
2059;1907
2052;1907
2057;1905
2050;1906
2048;1905
2068;1908
2036;1904
2048;1905
2048;1906
2034;1906
2048;1904
2055;1905
2063;1904
2052;1905
2037;1905
2049;1904
2050;1905
2053;1903
2054;1904
2053;1904
2067;1900
2051;1904
2052;1903
2051;1903
2054;1905
2050;1904
2037;1901
2048;1903
2049;1904
2051;1903
2029;1900
2053;1903
2048;1908
2054;1903
2031;1901
2055;1903
2053;1902
2055;1900
2049;1901
2054;1895
2059;1902
2048;1908
2048;1901
2057;1900
2052;1899
2048;1901
2048;1901
2054;1919
2039;1900
2048;1900
2048;1899
2038;1899
2034;1899
2048;1887
2056;1900
2048;1899
2034;1899
2054;1897
2060;1900
2048;1889
2048;1898
2048;1897
2051;1898
2050;1911
2049;1898
2048;1898
2039;1898
2051;1897
2049;1898
2048;1895
2048;1896
2038;1891
2049;1900
2048;1897
2049;1899
2048;1896
2037;1895
2048;1895
2057;1895
2054;1896
2048;1895
2054;1895
2054;1894
2052;1896
2052;1896
2039;1897
2048;1893
2048;1895
2048;1881
2038;1895
2039;1895
2048;1893
2048;1892
2048;1893
2048;1895
2048;1897
2048;1893
2050;1893
2048;1891
2051;1893
2048;1897
2055;1890
2052;1890
2049;1891
2049;1891
2052;1885
2055;1892
2041;1895
2039;1891
2036;1881
2048;1890
2048;1890
2048;1890
2048;1889
2037;1889
2048;1889
2049;1889
2052;1891
2048;1889
2049;1887
2048;1888
2050;1888
2057;1887
2048;1887
2048;1897
1792;1883
2055;1887
2037;1887
2036;1881
2048;1887
2037;1890
2040;1879
2048;1898
2037;1887
2061;1882
2048;1885
2048;1885
2041;1883
2048;1882
2054;1883
2048;1881
2048;1883
2048;1885
2048;1886
2048;1883
2039;1884
2038;1882
2041;1882
2036;1881
2035;1879
2035;1881
2037;1880
2042;1880
2039;1880
2031;1878
2039;1879
2048;1883
2048;1879
2037;1877
2048;1877
2048;1882
2048;1872
2048;1875
2038;1877
2036;1877
2040;1847
2048;1875
2037;1876
2041;1875
2037;1885
2034;1874
2037;1872
2035;1874
2038;1875
2038;1867
2038;1871
2041;1871
2048;1862
2037;1870
2048;1871
2039;1870
2060;1870
2041;1868
2048;1871
2048;1872
2038;1869
2037;1868
2037;1873
2034;1867
2033;1869
2033;1866
2035;1865
2037;1867
2034;1865
2032;1864
2031;1864
2036;1863
2035;1863
2035;1863
2037;1864
2034;1861
2031;1860
2036;1860
2036;1859
2033;1855
2039;1860
2034;1858
2034;1858
2032;1854
2027;1857
2019;1855
2026;1859
2028;1850
2027;1855
2022;1857
2031;1847
2021;1852
2026;1849
2028;1847
2031;1851
2031;1849
2018;1850
2029;1845
2034;1843
2026;1843
2021;1843
2021;1839
2015;1837
2021;1838
2020;1836
2017;1837
2013;1835
2017;1835
2013;1834
2021;1829
2016;1830
2015;1813
2018;1827
2024;1825
2025;1817
2022;1823
2018;1824
2018;1821
2020;1810
2025;1809
2029;1822
2021;1807
2012;1815
1859;1812
2037;1809
2037;1808
2027;1805
2020;1794
2019;1803
2015;1793
2013;1801
2021;1805
2020;1802
2020;1799
2021;1797
2022;1798
2023;1803
2023;1803
2022;1796
2020;1797
2029;1793
2023;1793
2014;1795
2019;1793
2019;1791
2020;1788
2015;1793
2020;1794
2016;1791
2013;1791
2017;1789
2020;1790
2021;1766
2023;1791
2020;1786
2023;1789
2023;1789
2039;1789
2026;1790
2018;1789
2023;1789
2022;1787
1998;1783
2017;1791
2016;1787
2017;1785
2015;1785
2015;1783
2019;1781
2017;1782
2018;1784
2021;1781
2001;1785
2019;1783
2020;1783
2019;1780
2021;1784
2023;1782
2013;1783
2020;1781
2019;1784
2020;1783
2017;1782
2024;1781
2018;1781
2014;1781
2009;1783
2013;1783
2014;1780
2029;1783
2015;1781
2022;1787
2013;1781
2020;1783
2018;1779
2022;1780
2023;1780
2018;1775
2018;1775
2017;1778
2020;1780
2015;1777
2015;1777
2011;1775
2015;1777
2015;1782
2012;1775
2013;1784
2013;1775
2012;1774
2015;1775
2014;1777
2015;1773
2018;1799
2018;1775
2018;1774
2016;1772
2024;1773
2016;1775
2017;1778
2023;1773
2018;1775
2018;1777
2007;1772
2014;1772
2015;1771
2013;1773
1988;1769
2014;1778
2011;1773
2013;1771
2021;1772
2013;1775
2014;1769
2018;1771
2019;1773
2017;1769
2009;1771
2015;1769
2011;1768
2025;1767
2014;1768
2014;1770
2014;1764
2011;1765
2030;1767
2004;1767
2011;1766
2036;1766
2010;1766
2013;1767
2014;1765
2017;1765
2015;1765
2015;1765
2011;1768
2015;1765
2015;1764
2013;1767
2019;1763
2010;1765
2009;1763
2010;1765
2011;1763
2006;1765
2010;1761
2007;1761
2004;1762
2010;1755
2010;1761
2007;1761
2009;1759
2013;1761
2013;1759
2015;1759
2011;1759
2017;1759
2014;1758
2013;1759
2014;1759
2014;1763
2009;1759
2009;1758
2000;1757
2007;1757
2008;1756
2007;1760
2008;1756
2012;1757
2006;1757
2009;1757
2014;1755
2017;1755
2012;1754
2013;1757
2013;1754
2017;1754
2015;1759
2015;1754
2013;1753
2010;1754
2009;1754
2009;1758
2011;1754
2007;1744
2011;1751
2007;1752
2009;1752
2008;1745
2005;1751
2007;1750
2011;1748
2015;1751
2013;1751
2018;1751
2014;1751
2014;1750
2012;1751
2015;1751
2028;1747
2007;1743
2013;1749
2005;1752
2009;1748
2007;1749
2007;1749
2011;1749
2006;1749
2012;1749
2012;1747
2010;1747
2011;1747
2011;1747
1991;1745
2008;1743
2015;1749
2017;1746
2011;1751
2012;1747
2011;1747
2013;1745
2011;1744
2009;1745
2009;1745
2007;1745
2008;1746
2006;1735
2005;1745
2009;1745
2007;1747
2006;1746
2004;1745
2011;1745
2011;1742
2012;1745
2011;1746
2014;1749
2013;1745
2010;1735
2006;1745
2010;1744
2003;1741
2010;1742
2010;1746
2003;1749
2007;1744
2009;1740
2006;1743
2010;1745
2009;1743
2009;1745
1995;1745
2009;1744
2011;1752
2013;1742
2013;1739
2013;1745
2011;1745
2013;1743
2010;1741
1992;1746
1993;1744
2013;1747
2009;1745
2007;1744
2007;1745
2006;1746
2005;1745
2007;1747
2007;1745
2010;1747
2007;1745
2009;1747
2011;1746
2009;1744
2012;1746
2011;1747
2015;1746
2010;1745
2009;1747
2009;1746
2011;1747
2006;1749
1994;1747
2005;1747
2005;1747
2003;1747
1999;1749
2011;1748
2007;1747
2003;1735
2007;1752
2007;1749
2011;1749
2010;1749
2009;1749
2013;1748
2009;1749
2010;1751
2004;1751
2006;1759
2003;1752
2003;1748
2005;1751
2003;1761
2003;1749
2005;1751
2001;1749
2005;1749
2005;1747
1976;1751
1994;1753
1994;1749
2005;1753
2008;1759
2010;1747
2008;1747
2009;1753
2010;1750
2005;1747
2002;1765
2003;1756
2001;1750
1999;1753
1998;1753
1997;1749
1997;1751
1997;1747
1990;1745
2002;1744
1986;1747
1983;1749
1983;1743
1987;1744
1984;1739
1962;1741
1844;1743
628;1751
2218;1725
2204;1709
2092;1695
2036;1687
1999;1673
1989;1676
1984;1679
1977;1670
1978;1670
1980;1661
1983;1664
1985;1662
1982;1659
1978;1659
1983;1657
1983;1627
1986;1649
1986;1656
1987;1662
1987;1657
1986;1674
1991;1657
1987;1656
1986;1655
1983;1654
1983;1656
1981;1655
1981;1655
1981;1655
1976;1652
1979;1655
1981;1655
1981;1655
1979;1655
1981;1655
1984;1658
1985;1655
1987;1655
1986;1659
1986;1658
1984;1657
1983;1657
1985;1656
1990;1657
1982;1656
1983;1657
1979;1657
1978;1656
1983;1657
1981;1653
1978;1659
1981;1656
1981;1657
1983;1655
1979;1658
1981;1658
1985;1638
1987;1655
1985;1658
1988;1663
1977;1659
1982;1659
1983;1660
1983;1659
1983;1659
1982;1659
1975;1659
1977;1662
1977;1661
1983;1666
1978;1662
1978;1662
1981;1661
1980;1666
1981;1659
1983;1660
1985;1667
1988;1661
1983;1663
1982;1663
1983;1664
1986;1661
1982;1665
1986;1665
1984;1658
1982;1666
1979;1667
1969;1661
1981;1668
1982;1668
1975;1667
1979;1671
1977;1669
1978;1668
1981;1665
1983;1669
1989;1668
1989;1673
1982;1669
1983;1670
1983;1671
1985;1671
1980;1673
1983;1673
1981;1673
1986;1671
1982;1676
1977;1676
1978;1675
1977;1677
1979;1674
1978;1673
1975;1677
1975;1677
1978;1676
1981;1677
1981;1679
1983;1686
1985;1679
1987;1679
1983;1680
1987;1680
1984;1681
1979;1682
1981;1680
1980;1683
1978;1678
1978;1677
1978;1685
1979;1683
1977;1683
1980;1684
1979;1705
1979;1684
1984;1687
1983;1685
1985;1685
1987;1688
1980;1663
1983;1687
1984;1687
1988;1686
1983;1692
1982;1689
1979;1687
1981;1688
1978;1689
1977;1690
1887;1707
1892;1728
1960;1726
1979;1719
1975;1719
1974;1714
1983;1717
1971;1718
1978;1713
1967;1714
1975;1720
1986;1714
1981;1718
1980;1710
1979;1713
1977;1711
1972;1713
1974;1712
1976;1713
1975;1719
1973;1714
1971;1715
1970;1716
1971;1717
1967;1716
1965;1716
1974;1717
1964;1719
1973;1719
1981;1717
1971;1719
1979;1711
1976;1721
1975;1720
1979;1722
1978;1721
1973;1723
1970;1723
1969;1727
1969;1723
1971;1725
1967;1726
1966;1723
1971;1726
1969;1725
1974;1727
1970;1724
1977;1728
1976;1733
1967;1730
1977;1729
1978;1726
1977;1736
1982;1747
1976;1731
1973;1731
1971;1726
1971;1731
1970;1733
1973;1728
1973;1730
1975;1732
1970;1733
1970;1735
1965;1732
1971;1734
1972;1735
1978;1735
1975;1736
1979;1735
1975;1735
1981;1735
1978;1737
1983;1738
1976;1735
1973;1735
1978;1753
1969;1738
1973;1738
1975;1737
1971;1735
1971;1740
1965;1735
1970;1746
1970;1739
1975;1737
1974;1739
1978;1738
1975;1738
1949;1741
1978;1731
1977;1739
1978;1722
1977;1741
1975;1740
1974;1742
1973;1741
1970;1741
1970;1742
1971;1742
1973;1739
1970;1741
1967;1742
1973;1742
1972;1743
1971;1742
1971;1743
1976;1742
1975;1751
1973;1743
1974;1741
1979;1743
1978;1745
1976;1743
1977;1747
1976;1745
1974;1745
1973;1745
1973;1744
1973;1745
1994;1745
1969;1746
1972;1746
1974;1746
1973;1746
1972;1746
1971;1747
1975;1746
1977;1747
1978;1747
1977;1743
1982;1747
1981;1747
1977;1748
1975;1748
1988;1748
1977;1748
1970;1749
1977;1749
1973;1740
1972;1749
1971;1753
1975;1752
1975;1750
1973;1769
1973;1749
1973;1750
1977;1750
1978;1751
1978;1751
1977;1751
1979;1751
1979;1751
1977;1751
1978;1751
1979;1727
1978;1753
1973;1753
1973;1752
1973;1753
1973;1755
1969;1754
1971;1755
1967;1755
1973;1754
1973;1756
1973;1761
1974;1754
1974;1758
1978;1754
1981;1759
1980;1757
1980;1759
1978;1759
1969;1762
1971;1761
1959;1765
1972;1749
1974;1762
1971;1765
1970;1769
1968;1761
1971;1772
1984;1767
1972;1770
1966;1773
1966;1770
1971;1772
1971;1781
1974;1779
1969;1777
1974;1775
1973;1779
1973;1773
2081;1756
1975;1761
1963;1766
1959;1771
1962;1775
1967;1775
1968;1774
1955;1783
1967;1776
1974;1780
1976;1778
1975;1777
1974;1778
1975;1777
1983;1774
1978;1777
1975;1777
1979;1778
1979;1785
1979;1778
1977;1777
1979;1779
1975;1788
1972;1779
1978;1781
1969;1781
1973;1779
1977;1781
1973;1779
1974;1780
1977;1793
1977;1782
1973;1785
1975;1780
1979;1780
1979;1783
1978;1779
1986;1783
1983;1781
1977;1777
1976;1783
1978;1783
1979;1781
1978;1789
1978;1783
1981;1783
1974;1782
1991;1786
1975;1783
1977;1783
1977;1783
1977;1783
1974;1785
1979;1778
1978;1782
1978;1783
1988;1783
1980;1785
1983;1786
1981;1786
1976;1786
1978;1788
1979;1789
1975;1788
1985;1786
1975;1787
1975;1789
1974;1785
1970;1787
1975;1785
1978;1788
1977;1785
1973;1787
1979;1791
1979;1790
1984;1789
1978;1787
1977;1790
1984;1789
1983;1793
1978;1791
1979;1791
1983;1790
1979;1789
2010;1786
1970;1786
1977;1791
1976;1792
1974;1792
1976;1798
1977;1797
1979;1792
1975;1793
1981;1791
1980;1792
1977;1795
1985;1794
1984;1795
1983;1786
1983;1795
1979;1800
1983;1798
1983;1795
1979;1825
1962;1799
1975;1798
1978;1796
1973;1796
1973;1797
1978;1797
1972;1797
1982;1800
1980;1795
1982;1799
1978;1795
1983;1798
1984;1796
1984;1799
1986;1799
1983;1799
1983;1799
1983;1799
1984;1801
1980;1804
1983;1801
1979;1801
1979;1801
1979;1800
1976;1802
1991;1802
1975;1803
1975;1801
1976;1802
2009;1807
1978;1806
1973;1802
1983;1777
1983;1804
1983;1798
1986;1801
1985;1806
1984;1806
1983;1805
1979;1809
1981;1806
1978;1806
1971;1807
1977;1805
1986;1807
1979;1807
1979;1807
1978;1809
1980;1807
1985;1807
1984;1807
1999;1807
1985;1809
1986;1809
1986;1809
1985;1808
1985;1808
1986;1814
1983;1809
1981;1809
1988;1813
1979;1811
1981;1813
1982;1811
1981;1811
1980;1816
1981;1811
1976;1811
1981;1811
1983;1812
1985;1811
1986;1813
1989;1813
1986;1813
1988;1818
1986;1818
1986;1821
1987;1815
1986;1815
1983;1815
1981;1799
1981;1815
1979;1815
1978;1816
1983;1815
1983;1830
1980;1811
1981;1816
1981;1816
1986;1817
1986;1818
1979;1811
1990;1817
1989;1819
1987;1823
1990;1820
1986;1817
1989;1819
1987;1821
1985;1822
1985;1819
1983;1821
1981;1819
1982;1820
1983;1823
1983;1821
1975;1822
1982;1819
1985;1822
1982;1824
1994;1817
1987;1821
1988;1822
1987;1821
1989;1805
1987;1820
1987;1823
1985;1825
1991;1824
1985;1821
1984;1825
1986;1823
1985;1814
1981;1825
1984;1822
1981;1825
1984;1825
1983;1842
